2062
2421
2643
2762
2791
2453
2120
1749
1406
1167
1006
1067
1318
1737
2164
2514
2763
2919
2927
2774
2391
2056
1685
1333
1167
1086
1244
1602
2035
2381
2820
2910
3007
2930
2664
2303
1896
1528
1202
1045
1036
1261
1633
2012
2372
2621
2780
2817
2676
2376
2041
1704
1364
1157
1085
1203
1565
1959
2376
2730
2936
3040
3015
2701
2369
1972
1551
1274
1108
1063
1303
1720
2102
2514
2772
2927
2879
2788
2396
2033
1622
1260
991
902
1055
1383
1750
2168
2550
2801
2927
2912
2697
2377
2047
1685
1389
1257
1190
1438
1770
2170
2531
2823
2986
3018
2931
2565
2202
1865
1476
1277
1120
1227
1538
1923
2296
2715
2838
2897
2868
2594
2200
1851
1426
1136
938
885
1111
1485
1879
2291
2619
2802
2892
2816
2543
2228
1884
1525
1282
1186
1234
1535
1928
2230
2601
2839
2936
2926
2690
2344
2013
1765
1298
1102
1080
1256
1607
1987
2354
2692
2872
2932
2812
2504
2151
1771
1456
1172
1054
1122
1424
1811
2219
2591
2808
2927
2926
2722
2388
2034
1639
1335
1143
1110
1265
1640
2019
2434
2724
3023
3032
2913
2699
2310
1930
1575
1278
1111
1140
1359
1730
2062
2557
2686
2821
2854
2674
2360
2039
1691
1337
1152
1080
1252
1615
2027
2404
2712
2895
3006
2916
2626
2287
1916
1540
1267
1207
1132
1395
1753
2085
2436
2681
2812
2842
2674
2327
1998
1636
1309
1159
1051
1055
1520
1887
2274
2596
2820
2910
2838
2559
2224
1863
1484
1196
1043
1055
1283
1651
2055
2388
2658
2810
2857
2723
2391
2080
1807
1394
1204
1153
1296
1657
2032
2470
2737
2976
3071
2959
2687
2349
1964
1575
1284
1144
1131
1329
1688
2031
2445
2680
2792
2858
2724
2388
2054
1714
1422
1238
1123
1247
1581
1901
2262
2580
2824
2948
2851
2602
2244
1914
1556
1299
1146
1139
1412
1770
2123
2491
2758
3075
2943
2799
2464
2141
1715
1440
1197
1059
1113
1415
1773
2099
2426
2617
2729
2874
2642
2180
1877
1528
1268
1129
1134
1360
1705
2079
2445
2724
2887
2995
2912
2593
2287
1940
1585
1331
1232
1309
1570
1918
2388
2607
2816
2903
2875
2639
2277
1907
1543
1301
1123
1078
1323
1650
2019
2399
2674
2843
2896
2763
2466
2096
1752
1393
1155
1059
1115
1395
1786
2125
2419
2644
2768
2770
2584
2280
1912
1568
1302
1167
1115
1346
1702
2086
2487
2755
2932
3024
2942
2627
2268
1930
1553
1304
1178
1223
1551
1922
2292
2622
2839
2968
2947
2727
2382
2011
1637
1300
1122
1071
1271
1578
1972
2311
2606
2770
2853
2771
2522
2207
1835
1512
1229
1153
1176
1453
1796
2156
2480
2744
2845
2856
2719
2359
2036
1690
1411
1212
1195
1345
1716
2045
2436
2744
2912
2963
2900
2598
1841
576
0
0
0
35
0
10
0
0
207
457
790
1087
1444
1766
2052
2332
2611
2830
3062
3187
3331
3419
3499
3512
3548
3488
3388
3263
3134
2977
2816
2625
2450
2305
2153
2047
1911
1851
1755
1707
1687
1679
1682
1692
1716
1748
1784
1838
1862
1912
1970
2011
1952
1928
1942
2015
2098
2244
2408
2592
2794
2973
3155
3328
3432
3523
3497
3448
3344
3208
3030
2888
2624
2435
2309
2180
2070
1999
1954
1905
1882
1806
1703
1623
1425
1307
1188
1130
1080
1046
999
915
839
813
743
800
876
1007
1174
1358
1539
1716
1910
2124
2316
2499
2674
2754
2846
2845
2803
2688
2600
2444
2286
2165
1940
1735
1532
1338
1140
886
668
472
260
12
0
0
0
0
0
0
9
138
287
469
643
792
937
1083
1246
1397
1602
1786
1952
2056
2192
2300
2456
2707
3083
3574
4083
4095
4095
4095
4095
4095
4095
4095
4095
4095
4095
4095
4095
4095
4095
4095
4095
4095
4095
4095
4095
4095
4095
4095
4095
4095
4095
4095
4095
4095
4095
4095
4095
4095
4095
4095
4095
4095
4095
4095
4095
4095
4095
4095
4095
4095
4095
4095
4095
4095
3471
2410
1212
0
0
0
32
71
0
0
0
0
0
0
11
0
10
0
0
0
0
0
0
0
0
0
0
0
0
0
0
43
63
0
0
0
136
232
461
684
972
1178
1446
1665
1956
2070
2183
2267
2269
2295
2225
2199
2119
2026
1936
1813
1650
1528
1457
1370
1253
1145
1025
948
840
762
791
800
897
1092
1311
1416
1510
1574
1682
1755
1786
1870
1937
2001
2109
2252
2401
2570
2653
2721
2785
2880
2923
2992
3087
3143
3195
3226
3218
3183
3175
3157
3119
3071
2972
2942
2971
2722
2603
2518
2463
2451
2462
2544
2584
2631
2683
2704
2675
2679
2734
2740
2776
2812
2816
2855
2887
2866
2830
2815
2861
2895
2859
2883
2871
2772
2720
2575
2453
2321
2144
2027
1919
1818
1715
1591
1485
1373
1255
1127
1059
1015
995
1007
1087
976
929
923
921
970
1045
1118
1241
1329
1427
1548
1608
1713
1811
1933
2029
2131
2216
2398
2260
2255
2248
2245
2224
2249
2315
2394
2452
2488
2522
2535
2523
2534
2527
2595
2585
2582
2528
2582
2608
2611
2603
2550
2399
2194
1987
1823
1681
1686
1505
1469
1398
1342
1334
1290
1233
1234
1274
1287
1330
1359
1395
1422
1452
1514
1571
1652
1678
1746
1840
1873
1914
1962
2014
2016
2036
2038
2094
2179
2233
2331
2431
2498
2481
2517
2447
2446
2377
2386
2343
2332
2335
2363
2355
2371
2398
2450
2401
2398
2376
2403
2373
2389
2422
2439
2494
2600
2659
2663
2680
2551
2491
2435
2400
2320
2338
2264
2204
2120
2047
1996
1897
1770
1670
1568
1436
1369
1327
1338
1392
1422
1473
1559
1646
1765
1894
2037
2234
2395
2558
2709
2802
2840
2904
2891
2912
2927
2952
2986
3010
2992
3000
2962
2962
2894
2839
2799
2705
2632
2563
2512
2465
2398
2369
2368
2333
2328
2320
2342
2328
2298
2273
2211
2124
2006
1937
1826
1719
1644
1578
1579
1607
1694
1776
1849
1914
1907
1872
1824
1706
1602
1486
1407
1377
1361
1292
1292
1298
1278
1280
1254
1181
1125
1083
1082
1134
1212
1287
1383
1435
1540
1622
1697
1799
1918
2054
2208
2358
2534
2633
2778
2845
2900
2935
2892
2838
2722
2567
2370
2126
1995
1518
1232
932
688
479
342
261
292
294
347
522
542
742
1011
1311
1623
1927
2194
2439
2630
2775
2878
2987
3087
3175
3267
3307
3315
3351
3319
3292
3271
3247
3187
3155
3105
3024
2979
2892
2823
2746
2664
2578
2473
2454
2435
2448
2414
2266
2174
2072
1928
1813
1647
1571
1426
1306
1222
1208
1184
1178
1213
1274
1365
1423
1465
1547
1582
1648
1632
1648
1722
1797
1916
2004
2054
2049
2033
1967
1915
1847
1885
1712
1683
1681
1664
1653
1613
1590
1551
1524
1468
1489
1379
1392
1185
1044
917
796
749
702
723
795
908
1009
1097
1210
1283
1393
1584
1758
1957
2097
2181
2203
2246
2232
2288
2282
2283
2274
2270
2267
2213
2172
2109
2066
2074
2075
2092
2117
2151
2254
2339
2432
2551
2650
2773
2900
2915
2915
2933
2882
2847
2876
2924
3014
3007
3008
2998
2964
2912
2832
2697
2648
2608
2578
2570
2583
2611
2654
2671
2697
2742
2726
2739
2742
2679
2651
2613
2614
2619
2709
2636
2595
2558
2495
2431
2307
2207
2052
1938
1770
1544
1402
1222
1101
1020
939
1049
802
800
827
891
880
877
879
889
892
931
967
1024
1107
1232
1335
1429
1483
1533
1529
1528
1522
1559
1555
1578
1676
1768
1962
1909
1934
1974
1921
1872
1774
1697
1678
1664
1648
1592
1551
1480
1413
1332
1239
1144
1081
1016
1030
1076
1134
1223
1335
1399
1456
1544
1737
1931
2114
2272
2358
2426
2522
2551
2654
2676
2704
2747
2800
2893
2971
3042
3164
3310
3488
3645
3726
3828
3947
3988
4027
4027
3977
3881
3924
3711
3595
3518
3361
3236
3106
2940
2772
2575
2384
2176
2040
1790
1658
1567
1462
1326
1238
1136
1066
1039
1027
1072
956
914
897
905
960
963
1058
1160
1174
1232
1263
1314
1360
1416
1444
1480
1559
1665
1766
1875
1912
1982
2004
2031
2052
2124
2175
2222
2296
2324
2381
2431
2494
2514
2511
2515
2499
2508
2455
2480
2480
2446
2391
2310
2221
2167
2126
2178
2086
2075
2043
2010
1969
1926
1854
1751
1716
1665
1618
1538
1481
1439
1429
1422
1447
1521
1560
1480
1487
1511
1474
1530
1583
1642
1658
1671
1661
1646
1598
1500
1405
1313
1280
1303
1365
1443
1530
1676
1812
1956
2090
2208
2304
2342
2395
2406
2439
2471
2509
2413
2369
2323
2292
2196
2224
2021
1931
1878
1813
1785
1763
1766
1765
1759
1747
1764
1797
1785
1860
1946
1975
2054
2091
2175
2244
2287
2286
2323
2367
2400
2457
2469
2480
2497
2464
2416
2365
2363
2368
2378
2405
2405
2403
2432
2432
2488
2440
2438
2354
2366
2278
2243
2245
2235
2223
2216
2208
2159
2100
2063
2067
1983
2023
2001
1981
1935
1886
1825
1821
1805
1765
1757
1798
1891
1894
2033
1928
1943
2032
2022
2023
2024
2006
1951
1913
1891
1878
1881
1892
1874
1920
1972
1942
2001
2060
2134
2190
2292
2391
2518
2656
2756
2861
2965
3072
3095
3151
3192
3160
3112
3045
2929
2779
2557
2277
2088
1716
1430
1207
1164
845
701
553
498
466
505
552
629
741
836
961
1080
1132
1248
1295
1393
1484
1583
1663
1737
1832
1903
1974
2095
2180
2283
2323
2359
2394
2424
2436
2501
2491
2487
2505
2479
2501
2673
2527
2563
2603
2536
2527
2521
2456
2415
2346
2270
2215
2106
2043
1994
1930
1862
1809
1746
1723
1759
1919
1910
1976
2049
2143
2175
2224
2294
2335
2390
2461
2485
2554
2542
2540
2530
2696
2462
2404
2359
2319
2328
2303
2291
2335
2287
2334
2390
2378
2419
2334
2294
2280
2287
2301
2280
2298
2337
2326
2312
2298
2231
2272
2101
2044
1978
1903
1755
1696
1685
1676
1667
1667
1691
1695
1719
1737
1812
1834
1866
1895
1932
1878
1864
1849
1842
1905
1903
1976
2026
2138
2163
2173
2175
2197
2216
2246
2240
2250
2192
2164
2056
2019
2043
2027
2054
2059
2112
2087
2062
2080
2047
2057
2142
2087
2102
2126
2066
2041
2015
1984
1930
1901
1776
1762
1762
1831
1870
1903
1929
1937
1922
1950
1926
1941
1928
1868
1841
1842
1839
1770
1732
1666
1543
1606
1448
1468
1540
1631
1708
1830
1921
1964
1993
2057
2090
2138
2150
2193
2164
2142
2112
2151
2107
2118
2136
2113
2109
2082
2003
1979
1961
1967
1920
1940
1941
1900
1911
1946
1962
1974
1914
1865
1815
1744
1764
1768
1830
1905
1919
1968
2008
2058
2080
2110
2134
2119
2107
2044
2068
1995
1970
1955
1959
1993
1950
1922
1908
1958
1962
2089
2062
2081
2083
2245
2014
1969
1939
1951
1989
2022
2037
2057
2093
2113
2141
2187
2228
2268
2337
2335
2372
2352
2288
2221
2137
2062
2019
2036
1969
2091
1944
1912
1896
1888
1919
1973
2029
2053
2117
2201
2237
2316
2351
2407
2447
2484
2426
2420
2392
2330
2248
2207
2179
2165
2133
2149
2208
2267
2287
2373
2398
2463
2458
2483
2435
2357
2287
2203
2070
1996
1894
1818
1775
1677
1657
1673
1609
1645
1727
1746
1778
1850
1914
1959
2004
2009
2065
2009
2016
2221
2044
2045
1995
2018
1999
2040
2067
2154
2163
2247
2250
2268
2267
2243
2219
2224
2153
2086
2048
2004
1979
1986
1960
1943
1921
1936
1946
1954
1984
1996
2027
2048
2018
2045
1999
2004
2003
1943
1905
1913
1845
1766
1746
1709
1679
1795
1888
1962
2032
2091
2145
2192
2223
2197
2183
2176
2135
2076
2021
1887
1765
1699
1623
1595
1611
1601
1632
1655
1781
1664
1683
1681
1699
1643
1789
1577
1590
1607
1689
1776
1867
1905
1990
2032
2079
2058
2082
2087
2088
2111
2063
2068
2077
2065
2105
2075
2112
2111
2028
2032
2048
2016
1959
1902
1835
1771
1755
1759
1843
1920
2000
2044
2074
2156
2063
2086
2093
2063
2066
2052
2111
2095
2119
2195
2197
2207
2183
2188
2101
2054
2058
2046
2079
2096
2124
2147
2199
2196
2194
2178
2098
2084
2134
2184
2311
2466
2616
2793
2879
2982
3071
3129
3143
3083
3045
2901
2748
2598
2454
2211
2026
1786
1533
1344
1150
998
887
893
774
720
719
731
794
876
945
1077
1162
1233
1360
1441
1590
1744
1870
1979
2134
2245
2327
2384
2451
2439
2512
2521
2554
2583
2599
2610
2609
2598
2577
2605
2522
2481
2408
2306
2200
2113
2051
2037
2006
1941
1916
1873
1962
1904
1864
1875
1900
1875
1930
1971
2011
2043
2058
2047
2015
2000
2011
2053
2057
2039
2048
2046
2023
2029
1988
1985
2039
2049
2051
2090
2157
2123
2159
2133
2160
2309
2164
2145
2100
2055
2011
1959
1942
1946
1968
1971
2011
2060
2092
2209
2198
2164
2177
2206
2229
2267
2315
2349
2360
2391
2373
2368
2265
2214
2088
2021
1944
1871
1882
1810
1795
1775
1737
1787
1786
1775
1787
1763
1738
1701
1634
1558
1504
1446
1480
1508
1616
1750
1834
1928
2000
2150
2269
2305
2327
2327
2318
2385
2317
2332
2330
2318
2259
2156
2077
1980
1834
1755
1676
1657
1692
1770
1860
1935
1994
2060
2145
2106
2154
2150
2267
2177
2132
1975
1806
1632
1432
1246
1095
999
954
890
842
776
747
752
763
793
916
1222
1301
1486
1624
1766
1867
1959
1989
2034
2115
2208
2344
2535
2648
2741
2852
2907
3009
3107
3256
3375
3576
3678
3751
3858
3743
3677
3624
3487
3405
3344
3256
3172
3069
2983
2919
2808
2770
2743
2779
2758
2687
2611
2546
2514
2488
2531
2551
2496
2411
2286
2168
2074
2001
1958
1941
1914
1882
1852
1807
1805
1790
1738
1714
1646
1607
1590
1601
1501
1439
1363
1324
1285
1270
1309
1339
1353
1435
1411
1433
1450
1433
1395
1346
1331
1318
1256
1277
1318
1377
1421
1458
1474
1468
1466
1440
1419
1440
1447
1445
1534
1521
1568
1682
1763
1879
1968
2066
2139
2137
2197
2162
2141
2061
2008
1976
1944
1926
1930
1938
1963
1983
2047
2061
2087
2126
2140
2157
2200
2174
2191
2192
2226
2248
2266
2347
2384
2436
2487
2499
2436
2367
2293
2247
2204
2149
2082
2055
2025
2021
2001
1993
1972
1979
1920
1920
1840
1819
1791
1826
1887
1934
1998
2047
2129
2156
2213
2263
2299
2302
2316
2287
2321
2342
2370
2389
2444
2471
2492
2528
2495
2472
2416
2384
2323
2255
2218
2191
2120
2043
2041
2000
1948
1859
1748
1651
1602
1557
1514
1488
1447
1429
1472
1471
1513
1570
1622
1674
1748
1737
1739
1707
1656
1622
1642
1652
1711
1753
1763
1809
1904
1867
1942
1909
1973
1967
1962
1963
1936
1913
1937
1970
1964
1992
1960
1939
1937
1938
1970
1983
2096
2039
1979
2008
1971
1927
1935
2018
2140
2232
2338
2459
2599
2713
2880
3012
3061
3156
3194
3261
3315
3362
3372
3408
3319
3224
3118
2959
2793
2645
2446
2268
2118
1966
1816
1674
1527
1442
1352
1326
1345
1379
1430
1491
1482
1459
1472
1505
1539
1617
1727
1814
1922
1998
2042
2047
2058
2046
1994
1887
1916
1553
1335
1153
988
872
765
683
640
615
621
658
724
784
888
997
1079
1218
1346
1413
1507
1653
1824
1947
2098
2152
2225
2294
2459
2416
2475
2552
2543
2543
2539
2613
2512
2514
2476
2456
2426
2572
2390
2420
2389
2417
2440
2460
2456
2480
2449
2422
2380
2301
2249
2179
2296
2063
2046
1973
1927
1906
1890
1898
1952
2039
2082
2121
2174
2170
2151
2120
2118
2068
2123
2080
2106
2107
2122
2100
2041
1998
1963
1963
1944
1960
2026
2003
2006
2037
2031
2054
2019
2006
1975
1942
1870
1857
1856
1860
2013
2034
2051
2113
2120
2141
2094
2114
2121
2091
2080
2047
2055
2004
2014
2112
2078
2071
2095
2185
2087
2152
2163
2188
2244
2266
2247
2211
2188
2096
2024
1968
1942
1991
2063
2155
2256
2346
2432
2475
2493
2531
2574
2616
2705
2642
2647
2641
2687
2532
2530
2448
2376
2339
2265
2248
2217
2171
2147
2124
2044
1919
1890
1799
1715
1634
1561
1492
1448
1430
1419
1441
1425
1364
1360
1343
1348
1446
1408
1441
1532
1515
1555
1596
1647
1686
1706
1749
1723
1763
1781
1818
1830
1853
1886
1891
1930
1945
1973
1949
2084
1985
2150
2083
2099
2149
2176
2189
2183
2222
2193
2188
2202
2169
2172
2174
2122
2111
2087
2083
2030
2013
1967
2010
2066
2141
2229
2304
2391
2396
2352
2337
2290
2215
2188
2166
2198
2171
2194
2235
2208
2205
2172
2169
2098
2082
2078
2090
2117
2072
2015
1958
1928
1870
1861
1801
1761
1743
1699
1705
1728
1767
1769
1782
1776
1947
1846
1878
2015
1994
2091
2178
2288
2457
2548
2688
2753
2823
2846
2833
2801
2887
2780
2791
2730
2704
2700
2642
2613
2618
2524
2431
2366
2287
2177
2080
1984
1937
1899
1882
1860
1791
1741
1692
1657
1632
1601
1557
1565
1524
1526
1511
1521
1546
1580
1618
1652
1711
1683
1705
1687
1697
1687
1691
1731
1801
1770
1767
1767
1769
1788
1770
1797
1791
1803
1819
1866
1859
1862
1910
1925
1976
2009
2050
2136
2159
2167
2228
2229
2256
2272
2290
2231
2195
2128
2098
2029
1974
1925
1891
1876
1864
1834
1840
1841
1892
1925
1969
2007
1980
2006
1984
1983
1996
2043
2007
2034
2046
2033
2053
1983
1921
1914
1876
1880
1965
2016
2080
2121
2181
2195
2215
2207
2230
2248
2158
2127
2104
2084
2080
2084
2095
2060
2058
2056
2077
2019
1994
1946
1943
1896
1886
1894
1920
1918
1959
1981
2019
2043
2054
2098
2087
2122
2132
2140
2111
2054
1987
1944
1851
1802
1762
1715
1776
1803
1878
1913
1927
1928
1975
2055
2123
2198
2223
2274
2256
2271
2258
2237
2208
2195
2091
2042
1923
1842
1778
1745
1705
1676
1666
1664
1700
1727
1828
1823
1884
1928
2016
2036
2101
2129
2189
2213
2271
2225
2256
2142
2094
2031
1972
1896
1871
1816
1816
1832
1831
1859
1987
2039
2134
2235
2297
2358
2392
2389
2392
2423
2391
2372
2313
2193
2083
1930
1874
1789
1754
1679
1625
1670
1727
1746
1791
1869
1896
2000
1999
2058
2111
2144
2198
2256
2276
2263
2255
2231
2148
2067
2011
1925
1877
1888
1875
1954
1995
2038
2112
2183
2242
2303
2384
2454
2527
2577
2698
2666
2708
2804
2899
2987
3018
3048
3080
3044
2943
2835
2719
2562
2360
2137
1920
1651
1427
1169
971
804
668
589
556
469
473
529
599
724
867
967
1143
1304
1453
1593
1699
1803
1881
1958
2019
2050
2219
2131
2134
2167
2192
2187
2195
2245
2280
2287
2435
2404
2473
2502
2522
2530
2575
2567
2567
2562
2514
2464
2411
2351
2310
2238
2135
2063
1983
1920
1904
1878
1902
1951
2002
2067
2140
2237
2225
2229
2207
2201
2193
2183
2139
2121
2047
2035
2044
2021
1985
2032
2001
2030
1992
1994
2048
2076
2049
2086
2118
2162
2177
2170
2116
2105
2195
2099
2175
2013
1992
1952
1914
1911
1894
1836
1852
1826
1819
1820
1846
1900
1911
1926
1931
1922
1945
1983
2008
2040
2095
2183
2335
2240
2247
2257
2247
2248
2193
2154
2169
2042
1978
1915
1875
1843
1846
1859
1891
1923
1983
2046
2051
2065
2051
2098
2106
2110
2158
2144
2175
2138
2094
2083
2071
2070
2074
2051
2066
1996
1932
1878
1830
1792
1756
1716
1680
1684
1748
1806
1914
1983
2014
2027
2047
2057
2078
2143
2134
2133
2147
2094
2007
1938
1868
1786
1723
1668
1612
1599
1614
1638
1694
1776
1845
1918
1990
2033
2056
2101
2113
2109
2109
2150
2125
2136
2144
2096
2095
2119
2164
2151
2168
2176
2161
2117
2067
2049
2022
2138
2009
2076
1999
2000
2003
2016
2023
2031
2055
2032
2109
2040
1994
2007
1981
1961
1958
1873
1863
1879
1890
1959
2058
2148
2151
2176
2216
2199
2239
2160
2150
2143
2111
2109
2086
2090
2076
2116
2133
2114
2102
2081
2023
1993
2002
2017
2050
2097
2168
2135
2095
2080
2108
2098
2107
2112
2070
2049
2022
2024
2026
2044
2036
2068
2080
2070
2031
2003
1968
1947
1946
1957
1987
2014
2035
2078
2074
2055
2076
2071
2087
2069
2075
2059
2068
2010
2008
2014
1985
1983
2016
2009
1991
2016
2018
2032
2057
2049
2079
2094
2072
2058
2051
2055
2047
2051
2015
2036
2017
2031
2063
2098
2092
2105
2153
2138
2141
2099
2111
2090
2121
2099
2087
2079
2168
2054
2048
2027
1979
1971
1986
1972
1964
1951
1930
1916
1968
2111
2031
2042
2169
2103
2079
2154
2139
2145
2177
2179
2108
2122
2084
2024
2018
1983
1975
1971
1969
1975
2001
2011
2022
2042
2065
2072
2088
2093
2085
2082
2048
2025
2021
2031
2040
2051
2047
2062
2070
2037
2027
2027
2048
2007
2009
1936
1849
1779
1661
1587
1532
1454
1405
1373
1403
1420
1379
1344
1265
1152
998
869
804
712
680
708
774
833
941
1054
1220
1396
1541
1731
1865
2079
2205
2371
2540
2678
2795
2909
2993
3069
3111
3088
3115
3018
2967
2894
2827
2770
2747
2680
2695
2559
2497
2429
2379
2298
2368
2248
2115
2053
1995
1946
1910
1872
1827
1797
1769
1754
1744
1768
1773
1805
1779
1800
1790
1801
1915
1807
1839
1878
1933
1991
1989
2058
2087
2093
2069
2054
2076
2085
2060
2053
2048
2038
2018
1987
1959
1930
1903
1900
1901
1882
1853
1821
1808
1841
1864
1881
1920
1931
1979
2048
2045
2078
2050
2063
2051
2058
2031
2049
2048
2049
2010
2015
2017
1986
1983
2000
2068
2095
2122
2164
2175
2264
2229
2224
2213
2213
2203
2175
2157
2134
2086
2090
2135
2119
2152
2191
2206
2235
2237
2279
2249
2254
2263
2291
2272
2288
2288
2277
2257
2207
2167
2167
2166
2228
2199
2194
2202
2157
2273
2167
2264
2108
2008
1971
1870
1785
1726
1675
1676
1724
1763
1855
1967
2096
2229
2426
2522
2651
2782
2891
3019
3045
3119
3167
3212
3383
3211
3194
3117
3007
2879
2676
2499
2292
2019
1769
1503
1261
1041
820
679
566
522
531
584
622
688
803
905
1048
1175
1261
1354
1490
1571
1738
1895
2027
2069
2159
2240
2285
2358
2356
2346
2341
2318
2262
2220
2130
2065
2001
1949
1978
1959
1989
2004
2019
2047
2096
2136
2125
2155
2205
2242
2275
2264
2277
2310
2211
2160
2084
2025
1955
1933
1927
1931
1947
2004
2032
2078
2108
2151
2217
2297
2319
2399
2448
2467
2455
2426
2371
2304
2280
2211
2240
2186
2150
2106
2128
2106
2063
2047
2049
2047
2021
2043
2120
2050
2096
2104
2087
2108
2081
2064
1991
1932
1904
1875
1868
1862
1851
1799
1811
1772
1777
1768
1782
1824
1833
1890
2016
2008
2068
2160
2258
2339
2379
2425
2436
2392
2324
2262
2172
2135
2049
2002
1968
1971
1951
1991
1998
2048
2088
2104
2116
2118
2098
2071
2029
1950
1929
1894
1836
1798
1781
1773
1727
1712
1729
1746
1745
1732
1708
1726
1725
1754
1784
1863
1885
1961
1983
1980
1994
1992
2034
2009
2013
2019
2011
2027
2000
1977
1938
1920
1878
1833
1782
1766
1731
1750
1767
1791
1836
1832
1828
1871
1878
1923
1976
2048
2096
2142
2287
2196
2202
2191
2176
2195
2160
2166
2175
2184
2197
2182
2282
2198
2244
2270
2320
2306
2303
2292
2317
2292
2310
2273
2292
2270
2278
2254
2245
2216
2254
2167
2171
2214
2257
2361
2457
2581
2667
2736
2754
2785
2803
2756
2769
2677
2591
2531
2401
2282
2158
2048
1951
1858
1759
1654
1564
1521
1473
1414
1394
1413
1405
1392
1429
1456
1443
1455
1495
1468
1503
1485
1526
1588
1650
1698
1750
1727
1745
1786
1814
1853
1818
1819
1792
1702
1632
1704
1503
1430
1430
1375
1391
1311
1331
1299
1416
1307
1363
1453
1540
1643
1747
1809
1885
1923
1959
2014
2056
2132
2224
2279
2367
2436
2483
2530
2599
2567
2569
2570
2539
2460
2410
2383
2349
2312
2331
2363
2432
2448
2454
2450
2426
2390
2346
2318
2295
2257
2221
2204
2181
2195
2144
2078
2017
2017
1990
1943
1908
1888
1840
1840
1857
1863
1895
1976
2039
2107
2158
2131
2169
2197
2248
2291
2272
2279
2427
2253
2207
2142
2059
1987
1929
1805
1724
1668
1607
1616
1658
1712
1794
1867
1984
2017
2048
2096
2103
2126
2196
2257
2304
2348
2403
2420
2402
2361
2329
2245
2137
2095
2018
1985
1933
1884
1882
1878
1846
1839
1872
1892
1889
1897
1975
2034
2141
2287
2384
2478
2536
2614
2688
2790
2821
2910
2967
2976
3003
3009
3021
3033
2988
2926
2899
2779
2691
2620
2478
2367
2283
2182
2103
2055
1988
1887
1817
1744
1651
1598
1498
1443
1414
1362
1299
1255
1228
1197
1197
1237
1266
1299
1360
1408
1444
1499
1590
1628
1669
1689
1732
1757
1810
1836
1884
1903
1911
1909
1900
1893
1898
1888
1908
1879
1861
1902
1896
1913
1926
1941
1968
1973
2001
2050
2084
2103
2093
2025
1979
1917
1842
1887
1810
1850
1865
1917
1959
2007
2037
2087
2130
2162
2177
2153
2165
2119
2111
2074
2023
1998
1916
1888
1847
1853
1810
1815
1835
1876
1942
1994
2046
2071
2104
2126
2162
2155
2189
2179
2195
2170
2179
2166
2214
2119
2095
2084
2042
2029
1945
1915
1841
1723
1718
1707
1669
1720
1733
1756
1792
1824
1908
1959
2037
2133
2158
2168
2182
2175
2151
2136
2090
2054
2019
2027
2004
2000
2036
2033
2031
2031
2000
1992
1984
2004
2007
2065
2096
2050
2036
2037
2027
2016
1984
1983
1934
1916
1920
1952
1972
1991
2040
2072
2127
2182
2235
2326
2326
2438
2448
2505
2580
2633
2703
2778
2847
2904
2964
2959
2976
2947
2903
2825
2720
2611
2400
2168
1903
1776
1384
1123
881
647
537
403
378
382
459
544
677
790
932
1098
1253
1428
1529
1654
1781
1852
2134
2049
2120
2161
2190
2239
2335
2453
2387
2441
2450
2456
2494
2479
2483
2490
2468
2471
2491
2450
2408
2377
2332
2312
2229
2183
2106
2040
2005
1943
1925
1920
1891
1945
1939
1988
1991
2003
2052
2079
2146
2142
2163
2186
2195
2240
2263
2323
2305
2290
2288
2242
2168
2107
2038
1979
1936
1984
1880
1883
1869
1889
1856
1870
2000
1984
2047
2064
2047
2062
2010
1985
1934
1915
1881
1911
1925
1978
2046
2110
2155
2174
2162
2141
2129
2095
2073
2070
2102
2157
2164
2170
2204
2233
2224
2211
2170
2158
2118
2067
2016
1986
1922
1846
1811
1758
1738
1735
1753
1802
1888
1931
2005
2099
2146
2208
2187
2222
2247
2169
2172
2189
2169
2132
2108
2077
2034
2003
1974
1975
1928
1839
1781
1761
1711
1728
1721
1740
1792
1883
1896
1972
2034
2117
2164
2208
2227
2239
2244
2229
2204
2115
2067
2035
2044
1971
1931
1892
1844
1795
1796
1729
1731
1796
1762
1740
1761
1749
1715
1744
1758
1840
1901
1986
2051
2055
2071
2031
2024
2002
1995
2014
2003
1940
1920
2070
1889
1893
1935
1941
1964
1989
2039
2136
2144
2167
2195
2238
2225
2244
2251
2214
2200
2175
2151
2160
2141
2098
2070
2039
2048
1993
1946
1937
1959
1908
1906
1913
1948
1987
2060
2111
2213
2296
2335
2299
2264
2198
2128
2056
1988
1916
1833
1776
1721
1687
1727
1856
1902
2025
2110
2187
2250
2281
2327
2372
2396
2464
2501
2481
2444
2350
2258
2134
2022
1970
1904
1900
1894
1939
1979
1905
1943
1959
1974
2047
2058
2050
2038
2026
2010
1990
1989
2024
2026
2055
2040
2066
2038
2028
2059
2070
2039
2076
2056
2055
2080
2107
2171
2180
2191
2190
2152
2122
2038
2028
1997
2022
2036
2026
2083
2069
2115
2116
2112
2097
2067
2093
2067
2100
2068
2076
2037
2007
1979
1936
1911
1835
1844
1853
1883
1899
1936
1972
1976
1984
1971
1989
1987
2011
2045
2033
2064
2044
2058
2004
2041
1919
1914
1815
1774
1771
1779
1803
1818
1816
1837
1823
1811
1777
1783
1855
1915
1989
2076
2069
2078
2071
2086
2058
1999
1975
1950
1958
1965
1973
1981
1995
2010
2022
2066
2083
2089
2058
2018
1964
1882
1827
1794
1701
1753
1748
1741
1778
1843
1909
1954
2055
2107
2173
2212
2223
2297
2215
2227
2203
2147
2114
2064
2024
2009
1982
1986
1998
2018
2010
1953
1951
1951
1935
1958
2005
1991
1992
1992
1975
1951
1960
1974
1984
1950
1975
1993
1999
2034
2032
2048
2041
2064
2100
2147
2127
2241
2222
2251
2120
2112
2112
2063
2081
2106
2132
2143
2170
2150
2131
2106
2103
2088
2104
2103
2097
2103
2121
2121
2145
2201
2180
2138
2149
2096
2024
1983
1972
1952
1953
1891
1866
1841
1863
1849
1850
1899
1920
1940
1980
2000
2038
2071
2148
2193
2263
2310
2341
2319
2288
2187
2123
2062
2047
2023
2016
2014
2027
1995
2027
2024
2034
2041
2054
2024
2000
1960
1926
1936
1895
1908
1905
1911
1903
1891
1911
1943
1933
2006
1892
1863
1856
1835
1805
1810
1808
1856
1937
2000
2055
2071
2099
2106
2134
2135
2152
2169
2156
2157
2215
2262
2301
2270
2250
2219
2176
2093
2032
1989
1999
1937
1970
1942
1985
2011
2040
2083
2089
2110
2102
2104
2106
2051
2037
1970
2023
1964
1963
1920
1880
1828
1802
1804
1879
1933
2006
2067
2124
2202
2211
2266
2281
2269
2265
2243
2241
2180
2163
2151
2127
2132
2183
2164
2200
2189
2225
2197
2190
2233
2265
2383
2452
2612
2773
2923
3016
3041
3105
3068
3031
2945
2826
2650
2451
2280
1975
1671
1490
1274
1008
792
619
491
439
414
434
535
660
763
887
1023
1167
1305
1423
1551
1678
1781
1924
1992
2086
2168
2219
2295
2303
2333
2322
2310
2299
2307
2327
2263
2258
2202
2168
2148
2111
2132
2126
2150
2129
2144
2171
2178
2189
2196
2194
2184
2258
2135
2153
2091
2124
2071
2068
2077
2072
2081
2088
2181
2114
2138
2155
2157
2168
2163
2174
2188
2141
2131
2080
2034
2040
2047
2035
2048
2049
2031
2023
2029
2049
2018
2045
2050
2055
2082
2111
2162
2163
2193
2155
2160
2115
2094
2045
2007
1977
1996
1951
1948
1970
2000
2157
2034
2051
2041
2044
2060
2034
2075
2088
2138
2127
2144
2127
2098
2089
2076
2050
2015
2037
2040
2088
2096
2092
2104
2064
2039
2048
2054
2074
2101
2143
2154
2159
2303
2129
2136
2099
2071
2056
2024
2008
1975
1926
1895
1904
1889
1898
1857
1861
1848
1858
1859
1862
1904
1947
1973
1941
1964
1932
1866
1843
1848
1855
1838
1792
1772
1774
1763
1776
1783
1823
1846
1837
1856
1858
1848
1858
1848
1912
1877
1898
1887
1912
1882
1875
1895
1928
1918
2000
1915
1903
1914
1883
1887
1921
1940
1975
1944
1939
1970
1975
1998
2040
2055
2102
2098
2094
2132
2120
2108
2088
2052
2039
2046
2026
2033
2026
2059
2067
2067
2097
2147
2150
2147
2107
2072
2031
2002
2007
1987
2015
2086
2147
2207
2196
2231
2215
2225
2189
2198
2168
2143
2163
2148
2154
2158
2208
2171
2116
2076
2039
2067
1960
1885
1970
2012
2061
2116
2150
2204
2237
2231
2183
2159
2103
2071
2022
1994
1991
1974
1985
2006
2043
2036
2026
2025
2008
1996
1969
1960
1922
1949
1939
1906
1854
1863
1871
1879
1895
1944
1937
1905
1882
1951
1960
1983
2048
2127
2229
2306
2357
2409
2382
2378
2324
2282
2347
2163
2088
2041
2029
1985
1984
2001
2032
2040
2087
2020
2062
2046
2053
2051
2096
2047
2048
2036
2016
1972
1992
1994
1992
1969
1952
1936
1939
1924
1921
1932
1885
1895
1883
1891
1872
1869
1904
1933
1971
2023
2021
2024
2027
2021
1994
1976
1956
1920
1912
1877
1846
1854
1841
1831
1840
1903
1970
2011
2058
2149
2186
2239
2223
2227
2232
2229
2267
2199
2214
2203
2167
2129
2121
2060
2051
2081
2025
1987
1996
2016
2016
2001
2020
1993
1993
1968
1954
1923
1912
1899
1913
1952
1978
2025
2035
2066
2099
2098
2098
2076
2037
2020
2014
2007
2004
2020
1995
2017
2075
2096
2115
2129
2135
2135
2115
2075
2175
2024
2039
2020
2006
2012
2037
2056
2041
2052
2002
1984
1971
1936
1925
1912
1870
1870
1900
1923
1967
1975
1990
1976
1998
2031
2006
1987
1944
1933
1924
1896
1846
1783
1747
1773
1748
1792
1894
1912
1995
2066
2160
2216
2197
2206
2231
2176
2119
2099
2094
2140
2151
2234
2217
2184
2158
2089
2059
2032
2018
1941
1949
1911
1926
2000
2073
2121
2198
2225
2207
2192
2112
2046
2001
1976
1966
1954
1985
1973
1981
1975
1985
2007
1979
1950
1936
1909
1891
1829
1882
1898
1907
1939
1995
2056
2121
2146
2146
2169
2175
2176
2162
2161
2152
2117
2092
2058
2055
2015
2028
2018
1985
1983
2015
1991
1991
2001
1983
1965
1976
1928
1923
1934
1946
1926
1951
1915
1918
1875
1898
1919
1918
1942
1917
1912
1890
1892
1908
1954
1972
1972
1995
2028
2064
2168
2153
2063
2052
2074
2243
2055
2088
2084
2090
2093
2087
2089
2074
2026
1991
1992
1990
2024
2001
1983
2006
2033
2012
2013
1965
1940
1915
1918
1978
2034
2266
2162
2242
2269
2311
2335
2370
2403
2368
2358
2312
2296
2249
2209
2140
2092
2016
1856
1747
1642
1636
1594
1612
1699
1771
1887
1978
2021
2063
2096
2166
2175
2188
2232
2232
2284
2306
2333
2352
2394
2435
2491
2547
2620
2633
2707
2816
2887
2963
2993
2989
2920
2815
2642
2491
2296
2095
1926
1704
1467
1296
1147
969
839
751
670
651
658
655
673
720
728
807
911
1051
1234
1358
1548
1700
1862
2006
2127
2279
2410
2505
2576
2643
2717
2608
2615
2451
2384
2311
2262
2230
2207
2225
2202
2205
2160
2192
2140
2139
2130
2087
2033
1991
1968
1923
1941
1976
2046
2154
2198
2263
2287
2295
2328
2295
2296
2283
2248
2250
2200
2206
2142
2103
2062
2004
1984
1938
1948
1911
1827
1755
1678
1650
1602
1631
1783
1768
1922
2072
2112
2188
2232
2276
2320
2318
2336
2295
2278
2230
2256
2193
2136
2090
2050
2000
1934
1887
1870
1882
1880
1924
1915
1897
1919
1943
1995
2074
2178
2218
2255
2279
2312
2349
2339
2307
2288
2261
2197
2145
2135
2076
2058
2007
1953
1924
1887
1842
1792
1782
1765
1783
1779
1822
1843
1922
1956
2016
2005
1999
2048
2100
2254
2239
2204
2258
2278
2258
2189
2179
2161
2153
2055
2020
1950
1923
1874
1799
1766
1736
1727
1772
1825
1794
1846
1864
1913
1988
2001
2044
2064
2039
2060
2074
2087
2089
2021
2002
1953
2107
1899
1850
1856
1822
1819
1818
1782
1776
1797
1827
1824
1850
1867
1876
1915
1944
1928
1911
1920
1874
1859
1844
1874
1888
1930
1966
2042
2093
2130
2146
2162
2323
2143
2158
2172
2200
2169
2157
2182
2142
2135
2154
2128
2112
2125
2130
2119
2140
2140
2125
2095
2099
2071
2035
2010
1995
1970
1984
1966
1971
2016
2071
2086
2124
2167
2136
2151
2106
2258
2065
2061
2048
2045
2032
1980
2023
2027
2022
2062
2034
2057
2074
2045
2064
2042
2039
2019
2058
2065
2043
2004
1968
1907
1866
1838
1849
1943
1998
2053
2160
2187
2234
2183
2361
2176
2113
2112
2082
2085
2098
2087
2099
2072
2077
2079
2064
2064
2058
2031
2031
1984
1963
1945
1951
1970
1980
1992
2031
2039
2075
2087
2113
2115
2140
2126
2082
2009
2005
1927
1889
1874
1874
1870
1895
1899
1938
1957
1951
1938
1968
2000
1980
2010
1945
1951
1929
1909
1948
1974
2094
2064
2119
2120
2145
2180
2167
2175
2180
2114
2112
2099
2063
2079
2007
2004
1974
1944
1937
1924
1907
1922
1923
1947
1962
1951
1892
1824
1752
1766
1658
1662
1760
1851
1964
2069
2187
2229
2252
2361
2302
2274
2248
2240
2205
2194
2139
2068
2041
2018
1975
1930
1908
1915
1916
1929
1955
1955
1971
1990
1975
1950
1928
1906
1902
1875
1930
2029
2083
2159
2235
2287
2343
2353
2366
2375
2336
2276
2268
2163
2151
2134
2106
2088
2043
2021
1991
1988
1920
1850
1830
1759
1770
1741
1771
1779
1847
1858
1912
1954
2035
2060
2108
2103
2128
2149
2115
2121
2112
2083
2064
2049
2032
2007
1931
1873
1921
1939
1982
2000
2038
2081
2134
2113
2111
2152
2153
2152
2185
2140
2147
2131
2119
2098
2064
2046
1939
1905
1820
1775
1737
1763
1785
1837
1888
1928
1996
1992
1991
2035
2012
1968
1964
2014
2046
2093
2114
2152
2130
2136
2088
2083
2072
2060
2062
2078
2045
2023
2040
2054
2037
2043
2043
2035
2015
2040
2051
2064
2111
2084
2039
2033
2008
2016
1949
1964
2052
1971
2026
2026
2044
2052
2073
2082
2037
2014
2002
1967
2001
1991
2028
2071
2086
2177
2103
2100
2085
2116
2075
2006
1951
1938
1927
1913
1940
1931
1959
1963
1968
1964
1966
1959
1956
1946
1952
1969
1948
1980
1962
1928
1952
1975
1994
1984
1994
2000
2012
2001
1998
1991
1995
1988
2008
2016
2054
2134
2149
2194
2184
2130
2090
2050
2020
1991
1982
1969
1968
1934
1948
1943
1975
1973
1977
1975
1935
1918
1899
1895
1875
1923
2010
2077
2191
2304
2431
2409
2408
2408
2328
2261
2216
2168
2097
2026
1934
1912
1957
1876
1853
1875
1884
1912
1890
2039
1938
1937
1935
1932
1993
1928
1978
1997
1969
2007
2064
2149
2215
2282
2359
2453
2541
2624
2681
2741
2806
2871
2950
2976
3013
3027
3006
2940
2903
2700
2535
2301
2091
1840
1627
1406
1236
1075
951
831
714
627
571
548
597
599
650
756
826
923
1051
1221
1351
1487
1606
1699
1795
1854
1936
2045
2135
2220
2327
2404
2435
2461
2471
2513
2523
2570
2587
2578
2575
2571
2572
2501
2461
2439
2480
2365
2315
2315
2272
2247
2188
2143
2096
2040
1984
1937
1956
1976
1935
1952
1966
1957
2002
2016
2033
2032
2026
2023
2002
1991
1986
1975
2002
1972
1987
1999
2060
2124
2230
2282
2341
2370
2355
2331
2232
2145
2087
2025
1978
1938
1917
1886
1899
1877
1892
1874
1893
1875
1912
1921
1968
1945
2002
2028
2048
2072
2055
2035
2011
1968
1886
1833
1847
1803
1864
1920
1990
2023
2119
2111
2147
2122
2167
2174
2258
2183
2161
2142
2156
2155
2159
2192
2192
2171
2087
2096
2031
1996
1987
2016
2057
2071
2098
2095
2060
2034
1904
2003
2015
2011
2060
2058
2073
2043
2041
2023
2030
2020
1986
1976
1911
1880
1862
1825
1834
1816
1824
1833
1799
1826
1808
1840
1828
1812
1788
1802
1856
1931
1958
1955
1975
1991
1984
2089
2022
2013
1972
1898
1846
1751
1738
1736
1781
1846
1874
1928
1922
1966
1936
1959
1967
2004
1994
1936
2098
2102
2152
2143
2126
2144
2122
2099
2048
2012
1995
1963
1965
1966
1991
2072
2129
2074
2100
2150
2120
2088
2085
2073
2045
2032
2018
2030
2043
2115
2142
2163
2156
2170
2176
2152
2184
2136
2127
2088
2052
2030
2010
2007
2010
1968
1951
1939
1894
1899
1887
1854
1839
1831
1859
2012
1919
1933
2000
2024
2040
2038
2017
2001
1983
1995
2029
2039
2039
2059
2128
2116
2167
2200
2204
2218
2227
2236
2203
2223
2167
2127
2125
2074
2036
2020
2029
2013
2054
2078
2094
2110
2093
2063
2047
2049
2017
2056
2093
2055
2067
2071
2082
2083
2262
2125
2172
2135
2091
2059
2055
2068
2048
2043
2036
2011
2043
2015
1994
1997
1997
2034
2055
2017
2032
2011
2013
2011
2015
2019
2043
2093
2131
2176
2171
2148
2136
2060
1987
1960
1889
1863
1857
1836
1877
1888
1909
1965
2060
2034
2031
2034
2015
1967
1943
1924
1941
1973
2032
2084
2085
2079
2108
2089
2085
2091
2134
2146
2144
2123
2106
2097
2082
2044
2014
2007
1966
1996
1968
1922
1886
1856
1809
1768
1804
1826
1933
2019
2127
2199
2238
2199
2210
2191
2173
2144
2104
2046
2030
1968
1954
1933
1924
1893
1895
1887
1875
1890
1859
1861
1827
1790
1785
1771
1815
1888
1987
2093
2194
2229
2279
2350
2386
2419
2440
2423
2367
2321
2310
2161
2120
2017
1959
1934
1889
1839
1823
1807
1816
1801
1778
1802
1794
1824
1891
1888
1921
1957
1959
2010
1982
1965
1996
2012
2010
2019
2024
1990
2010
1984
2006
1948
1992
1966
1986
2117
2046
2031
2016
1999
1968
1917
1858
1764
1705
1718
1732
1888
1967
2109
2271
2439
2522
2700
2581
2578
2492
2436
2356
2286
2206
2111
2056
2009
1964
1958
1921
1911
1861
1834
1848
1820
1809
1824
1827
1882
1864
1863
1873
1851
1904
1923
1967
1999
2053
2056
2101
2103
2083
2059
2071
2135
2069
2087
2089
2099
2117
2094
2110
2060
2070
2026
1995
1966
1984
1936
2010
2053
2147
2204
2284
2334
2326
2304
2233
2216
2191
2121
2101
2073
1988
1954
1947
1903
1888
1895
1850
1881
1840
1780
1776
1755
1754
1815
1888
1981
2005
2076
2115
2159
2139
2131
2137
2127
2125
2147
2123
2099
2106
2081
2055
2078
2007
1987
1968
1914
1917
1863
1883
1851
1888
1979
1897
1912
1913
1947
1968
1976
1989
1994
2001
2010
2111
2011
2136
2055
2056
2071
2080
2079
2090
2087
2048
2013
2025
2007
1990
1991
1962
2022
1985
2028
2065
2087
2072
2087
2122
2099
2105
2112
2112
2120
2113
2107
2112
2176
2117
2079
2043
1989
1972
1969
1957
1962
1959
1953
1971
1961
1951
1955
1938
1942
1946
1951
1930
1942
1960
1979
2023
2061
2128
2160
2197
2264
2306
2343
2417
2489
2588
2690
2814
2889
2985
2954
2954
2935
2931
2880
2887
2806
2719
2614
2450
2252
2051
1806
1559
1318
1103
908
739
621
561
531
546
538
567
656
693
791
900
1080
1144
1265
1376
1502
1655
1781
1936
1996
2107
2237
2373
2438
2492
2498
2554
2563
2559
2552
2534
2526
2525
2507
2515
2483
2463
2459
2432
2384
2303
2294
2166
2099
2108
2039
2002
1949
1969
2004
2044
2088
2096
2118
2131
2129
2123
2152
2143
2142
2140
2130
2120
2068
2036
2045
1994
1950
1950
1919
1927
1935
1899
1947
1949
1975
2015
2057
2111
2169
2221
2243
2234
2226
2185
2135
2095
2050
1965
1956
1904
1883
1866
1866
1897
1936
1974
2027
2053
2101
2074
2103
2117
2153
2162
2194
2207
2240
2259
2256
2212
2176
2116
2048
1993
1943
1885
1853
1832
1819
1812
1803
1830
1878
1928
1979
2020
1998
1999
2008
1991
2003
2043
2024
2047
2071
2103
2176
2182
2211
2211
2233
2178
2153
2131
2122
2128
2108
2101
2095
2093
2100
2094
2054
2059
2040
2042
2004
1983
1959
1941
1943
1931
1875
1885
1947
1919
1942
1944
1931
1902
1899
1887
1864
1838
1765
1746
1728
1703
1713
1750
1792
1807
1851
1928
1923
1966
1976
1970
1987
2008
2036
2050
2121
2171
2048
2049
2024
2012
1973
2008
1960
1996
2006
2021
2139
1955
1949
1943
1970
1952
1978
2036
1970
1999
1980
1946
1953
1942
2010
1968
1992
1983
1991
2013
2050
2043
2072
2107
2099
2088
2080
2067
2106
1938
1936
1859
1895
1887
1930
1992
2015
2022
2047
2074
2079
2079
2089
2292
2126
2094
2088
2082
2008
1972
1941
1950
1981
2040
2093
2138
2235
2261
2316
2400
2409
2439
2444
2411
2351
2239
2172
2066
2038
1957
1888
1823
1839
1788
1773
1760
1750
1753
1783
1790
1837
1904
1953
1992
2036
2021
2043
2053
2063
2152
2118
2227
2209
2238
2255
2227
2238
2221
2216
2208
2200
2206
2268
2214
2186
2157
2143
2090
2082
2040
2028
2018
1973
1960
1946
1943
1951
2000
2046
2148
2175
2141
2131
2143
2117
2077
2047
2105
1953
1890
1838
1810
1818
1851
1841
1908
1909
1952
1937
1968
1973
2028
2050
2070
2101
2087
2087
2079
2098
2056
2066
2035
2032
1995
1930
1930
1856
1790
1806
1745
1768
1767
1817
1823
1900
2000
2108
2147
2231
2248
2278
2227
2200
2095
2028
1984
1968
1944
1973
1967
1974
1989
2029
2035
2060
2082
2118
2174
2176
2174
2167
2190
2153
2151
2112
2080
2042
2006
1958
1907
1884
1839
1827
1824
1872
1983
1940
1999
2011
2032
2057
2091
2085
2098
2094
2099
2072
2051
1975
1957
1903
1873
1886
1913
1936
1970
2010
1999
2026
1997
1976
1959
1943
1952
1983
2001
2047
2100
2127
2114
2097
2049
2016
1966
1949
1915
1904
1915
1923
1959
2005
2020
2060
2088
2119
2115
2088
2063
2053
2065
2070
2066
2076
2048
2042
2034
2077
1999
1989
1971
1949
1963
1962
1999
2133
2045
2090
2138
2128
2141
2129
2116
2093
2080
2065
2019
1974
1937
1935
1936
1935
1969
1962
2016
2043
2088
2111
2159
2200
2211
2214
2335
2139
2084
2046
1976
1936
1887
1849
1830
1836
1827
1849
1856
1877
1920
1929
1940
1976
2049
2080
2119
2187
2266
2349
2383
2457
2440
2439
2357
2263
2206
2129
2055
1990
1979
1964
1960
1970
1986
1988
1964
1938
1955
1926
1918
1930
1950
1986
2023
2083
2111
2119
2128
2091
2076
2053
2031
2044
2048
2035
2094
2084
2118
2129
2108
2076
2057
1983
1886
1827
1720
1664
1585
1534
1474
1443
1440
1398
1407
1440
1482
1495
1499
1525
1561
1536
1542
1590
1591
1674
1728
1792
1852
1891
1947
2020
2027
2073
2060
2088
2056
2023
2008
1975
1896
1826
1791
1786
1756
1753
1755
1735
1765
1725
1762
1746
1752
1746
1770
1752
1770
1791
1808
1798
1771
1776
1740
1751
1764
1783
1812
1862
1901
1978
2054
2126
2222
2286
2390
2432
2506
2581
2698
2730
2795
2833
2823
2827
2878
2834
2863
2837
2811
2790
2760
2728
2671
2624
2475
2504
2474
2428
2449
2480
2534
2564
2637
2694
2775
2823
2836
2843
2835
2828
2755
2798
2568
2396
2215
2002
1753
1530
1308
1054
887
795
718
669
674
712
795
877
978
1103
1271
1431
1601
1729
1869
2008
2102
2201
2328
2383
2401
2417
2441
2471
2505
2488
2501
2546
2519
2480
2458
2366
2297
2220
2122
2192
1992
1946
1951
1913
1916
1902
1902
1891
1922
1949
1921
1974
1914
1854
1856
1832
1752
1742
1731
1712
1710
1757
1797
1809
1877
1890
1905
1923
1944
1933
1968
2013
1992
2002
1983
1968
1940
1889
1873
1830
1828
1802
1938
1832
1879
1942
1984
2019
2096
2138
2256
2278
2311
2380
2399
2416
2407
2407
2405
2405
2493
2436
2420
2396
2373
2376
2347
2330
2268
2229
2202
2129
2091
2098
2049
2036
2063
2080
2114
2103
2138
2119
2097
2040
1989
1898
1834
1761
1752
1705
1685
1686
1668
1691
1784
1888
1945
2044
2035
2027
2046
2014
1995
1949
1913
1877
1808
1779
1753
1770
1833
1844
1861
1934
1975
1983
2002
2014
2030
2056
2077
2147
2154
2162
2145
2152
2124
2066
2042
2000
1949
1908
1887
1866
1856
1835
1859
1879
1912
1906
1883
1829
1811
1739
1739
1721
1717
1718
1730
1735
1776
1816
1808
1873
1891
1949
2007
2058
2114
2221
2463
2407
2456
2505
2587
2585
2567
2583
2767
2595
2539
2497
2456
2404
2331
2297
2282
2267
2204
2142
2103
2113
2092
2112
2119
2116
2059
2059
2024
1995
1945
1844
1753
1647
1573
1501
1456
1411
1351
1281
1281
1307
1314
1278
1287
1307
1344
1398
1462
1595
1764
1967
2176
2366
2524
2666
2795
2930
3014
3158
3254
3343
3398
3412
3363
3320
3269
3172
3127
2953
2818
2771
2720
2614
2557
2504
2445
2451
2532
2442
2427
2379
2359
2276
2187
2078
2176
1903
1850
1736
1613
1497
1363
1299
1188
1152
1128
1067
1066
1048
1058
1067
1128
1145
1153
1113
1099
1128
1110
1089
1094
1130
1145
1140
1261
1207
1255
1304
1405
1373
1418
1466
1527
1565
1676
1766
1927
1930
1984
2040
2075
2076
2068
2071
2116
2152
2111
2139
2152
2199
2208
2245
2254
2294
2340
2349
2459
2300
2252
2249
2187
2159
2087
2055
2039
2076
1972
1935
1880
1887
1829
1834
1838
1787
1784
1833
1872
1911
1967
1990
2052
2116
2211
2234
2317
2338
2305
2359
2312
2307
2290
2210
2208
2133
2085
2064
2065
2037
2002
2047
2019
2021
2035
2073
2093
2137
2113
2152
2173
2167
2205
2199
2208
2215
2253
2221
2213
2219
2233
2265
2291
2320
2336
2331
2306
2272
2238
2218
2197
2224
2198
2215
2275
2256
2243
2185
2119
2023
1905
1783
1720
1649
1638
1609
1645
1721
1806
1916
2026
2156
2260
2298
2387
2402
2414
2394
2407
2364
2325
2284
2285
2285
2262
2272
2260
2286
2296
2232
2162
2053
1864
1721
1616
1537
1478
1503
1575
1560
1648
1718
1778
1827
1897
2071
2041
2075
2098
2191
2125
2131
2169
2179
2241
2259
2242
2256
2215
2240
2230
2187
2151
2131
2092
2063
2062
2082
2073
2120
2089
2272
2081
2060
2051
2048
2043
2039
2026
2028
2042
2060
2051
2072
2080
2065
2055
2054
2047
2034
1988
1968
1866
1790
1744
1698
1646
1650
1689
1781
1856
1926
2044
2126
2231
2287
2373
2462
2526
2485
2477
2463
2456
2409
2428
2323
2241
2146
2229
2002
1968
1922
1904
1889
1848
1862
1857
1886
1905
1951
1990
2008
2038
2059
2039
2054
2040
2044
2024
2000
1994
1939
1889
1818
1754
1789
1661
1665
1698
1771
1828
1876
1924
1947
1967
2042
2100
2146
2220
2241
2229
2207
2144
2063
2026
2006
1951
1954
1927
2097
1978
1995
2014
2038
2027
2036
2071
2008
1983
1961
1935
1912
1919
1908
1947
1981
2003
2049
2080
2052
2048
2052
1998
1986
1968
1941
1926
1948
1973
1912
2020
2074
2100
2083
2056
2057
2024
2000
1960
1981
2015
2030
2052
2120
2046
2042
2048
2031
2015
1999
2038
2012
2069
2092
2155
2233
2296
2416
2493
2565
2646
2723
2792
2895
2919
3027
3003
2950
2909
2759
2640
2592
2416
2263
2114
1914
1737
1537
1393
1223
1040
917
840
738
847
719
755
806
917
1008
1084
1189
1283
1388
1467
1509
1576
1615
1651
1725
1808
1923
1971
2064
2144
2222
2302
2367
2527
2555
2565
2610
2592
2599
2812
2662
2679
2600
2537
2455
2362
2271
2211
2160
2064
2047
1948
1906
1911
1898
1942
1953
1998
2019
2107
2119
2149
2183
2218
2245
2240
2231
2193
2162
2112
2071
2050
2009
1980
1916
1859
1812
1778
1782
1742
1778
1798
1808
1844
1904
2019
2162
2259
2369
2428
2488
2478
2450
2364
2403
2272
2199
2144
2123
2064
2172
2051
2059
2013
1977
2002
1969
1949
1956
1952
1970
1997
2039
2063
2120
2167
2222
2268
2271
2298
2209
2194
2071
2013
1920
1909
1819
1795
1813
1817
1822
1830
1847
1902
1937
2001
2183
2095
2123
2192
2224
2247
2251
2258
2283
2297
2307
2298
2287
2250
2227
2208
2168
2149
2120
2091
2036
2012
1991
1953
1922
1890
1875
1835
1818
1814
1783
1792
1851
1868
1974
1880
1996
1932
1907
1961
1939
1888
1898
1866
1868
1847
1872
1849
1798
1781
1796
1792
1825
1863
1922
1945
1985
2009
2026
2030
2098
2095
2113
2155
2170
2143
2151
2127
2095
2033
2024
1970
1928
1904
1840
1789
1741
1715
1708
1687
1738
1793
1834
1875
1947
1991
2061
2154
2190
2308
2333
2446
2466
2602
2496
2460
2522
2297
2224
2166
2049
1967
1911
1792
1728
1631
1614
1594
1580
1604
1691
1806
1986
2128
2128
2175
2178
2167
2139
2131
2133
2120
2084
2091
2034
2003
1977
1945
1911
1896
1967
1878
1859
1851
1888
1922
1914
1968
1941
1983
2063
2134
2235
2335
2419
2479
2550
2539
2534
2472
2432
2399
2338
2280
2186
2130
2062
2024
1946
1927
1866
1847
1796
1731
1738
1715
1682
1702
1712
1686
1733
1782
1825
1864
1929
1969
2033
2026
2039
2040
2044
2099
2122
2135
2161
2160
2171
2152
2156
2084
2059
2013
2000
1967
1988
1967
2031
2051
2100
2200
2252
2270
2259
2256
2221
2187
2104
2063
2034
1983
1942
1925
1906
1859
1849
1836
1842
1820
1839
1851
1884
1887
1903
1928
1949
1973
2011
2084
2134
2175
2158
2176
2151
2126
2131
2160
2131
2153
2087
2128
2102
2078
2067
2060
2056
2014
2031
1939
1888
1836
1800
1835
1856
1890
1951
1968
1953
2102
1987
1961
1980
1952
1926
1937
1913
1898
1927
1875
1871
1849
1847
1883
2027
1960
2013
2120
2198
2299
2337
2422
2358
2331
2325
2314
2282
2203
2228
2150
2030
1972
1929
1884
1823
1791
1759
1765
1685
1657
1749
1676
1742
1759
1886
1950
2062
2205
2298
2333
2327
2284
2261
2214
2224
2163
2134
2072
2026
1969
1968
1888
1870
1830
1833
1787
1798
1782
1763
1795
1867
1911
2015
2042
2068
2146
2171
2190
2221
2283
2244
2279
2247
2211
2218
2159
2124
2120
2047
2004
1959
1929
1887
1854
1846
1807
1783
1744
1714
1742
1762
1748
1787
1886
1947
2071
2159
2255
2320
2358
2338
2299
2291
2299
2245
2179
2133
2078
2046
1992
1990
1964
1953
1911
1859
1827
1795
1761
1711
1695
1724
1870
1822
1946
2040
2135
2203
2276
2301
2320
2301
2322
2304
2302
2279
2231
2179
2193
2141
2108
2068
2011
1958
1887
1849
1821
1774
1748
1719
1721
1760
1790
1815
1859
1976
2014
2083
2120
2081
2214
2257
2318
2331
2272
2317
2282
2268
2212
2202
2078
1980
1920
1863
1813
1819
1761
1774
1764
1795
1805
1813
1819
1849
1866
1857
1881
1923
1971
1959
1951
2015
2036
2132
2068
2084
2092
2057
2067
2037
2047
1984
1900
1863
1836
1857
1885
1934
1951
2002
2199
2080
2075
2093
2128
2219
2268
2291
2307
2317
2338
2272
2248
2221
2174
2119
2078
2062
2051
1980
1949
1908
1892
1877
1882
1879
1896
1934
1967
2000
2027
2058
2075
2100
2080
2093
2075
2056
2095
2092
2109
2136
2088
2067
2100
2051
2053
2036
2047
2109
2163
2160
2206
2284
2363
2464
2532
2613
2684
2742
2837
2879
3036
3047
3103
3126
3141
3055
2893
2734
2526
2249
1998
1733
1499
1296
1041
847
699
594
533
538
718
635
708
770
799
926
961
1030
1101
1235
1297
1412
1464
1555
1673
1759
1895
2000
2142
2233
2331
2401
2495
2581
2635
2595
2623
2618
2607
2599
2594
2495
2511
2302
2229
2163
2104
2039
1990
1985
2039
1944
1960
2032
2070
2187
2173
2230
2234
2250
2233
2190
2147
2087
2050
2021
2091
1959
1987
1949
1969
2031
2003
2032
2059
2067
2088
2122
2128
2135
2152
2178
2147
2162
2161
2156
2144
2149
2159
2135
2102
2048
2024
1939
1881
1830
1765
1739
1728
1768
1820
1855
1933
1981
2042
2050
2079
2111
2123
2152
2187
2238
2215
2229
2351
2211
2174
2151
2113
2082
2083
2087
2112
2122
2100
2075
1982
1909
1860
1842
1835
1927
1932
2073
2083
2113
2127
2161
2195
2227
2263
2305
2304
2258
2242
2167
2135
2115
2055
2034
1989
1969
1948
1937
1935
1960
1981
2022
2051
2131
1997
1992
1889
1857
1898
1814
1791
1824
1842
1869
1886
1910
1940
1984
1960
1944
1908
1903
1909
1906
1973
1964
1974
1974
1917
1874
1887
1852
1861
1841
1765
1739
1898
1719
1714
1704
1727
1712
1745
1755
1738
1737
1740
1732
1740
1808
1823
1906
1977
2035
2096
2139
2174
2208
2224
2254
2245
2217
2197
2179
2135
2112
2054
2071
2096
2113
2092
2149
2166
2125
2137
2138
2143
2125
2107
2100
2052
2047
2038
2048
2075
2053
2053
2060
2047
2102
2079
2054
2035
2012
1968
1916
1862
1864
1824
1900
1962
2031
2085
2173
2219
2241
2269
2276
2267
2268
2233
2200
2177
2149
2083
2041
2001
1965
1951
1931
1922
1936
1973
2029
2021
2045
2054
2061
2068
2079
2120
2129
2134
2121
2108
2080
2067
2088
2070
1985
1922
1872
1844
1835
1840
1877
1964
2049
2084
2081
2146
2130
2144
2174
2133
2144
2107
2091
2079
2084
2157
2087
2089
2043
2035
2005
1965
1940
1875
1891
1877
1905
2015
1945
1969
1999
2020
2037
2096
2051
2038
2039
2038
2057
2078
2109
2109
2141
2152
2170
2151
2253
2123
2119
2086
2052
2005
1999
1927
1890
1878
1907
1986
2025
2048
2091
2168
2152
2141
2114
2081
2088
2043
1996
1967
1973
1923
1920
1920
1959
1878
1872
1888
1900
1907
1902
2080
1960
1954
2001
2048
2074
2130
2112
2114
2162
2131
2133
2143
2087
2038
2015
2031
2016
2047
2061
2080
2088
2112
2102
2136
2136
2099
2100
2107
2120
2128
2130
2181
2164
2180
2192
2196
2150
2118
2055
2024
1988
1943
1933
2001
1937
1945
1963
1958
1972
1930
1918
1967
1943
1934
2023
1956
1966
1987
2000
2023
2043
2057
2086
2090
2092
2088
2062
2060
2023
2027
2050
2051
2094
2132
2158
2192
2215
2185
2159
2119
2095
2082
2080
2043
2213
2007
1956
1968
1913
1937
1930
1943
1985
1991
1990
1950
1931
1887
1949
1858
1872
1878
1922
1983
2006
2064
2071
2075
2077
2051
2000
2009
1996
1957
1961
1951
1967
2000
2029
2034
2045
2059
1982
1987
1967
1956
1931
2073
1975
1951
1931
2078
1963
1990
2037
2035
2027
2041
2022
2033
2000
1964
1919
1897
1908
1903
1932
1922
1946
2014
2048
2070
2137
2170
2190
2232
2276
2354
2335
2355
2349
2341
2337
2251
2376
2254
2145
2108
2131
2030
2072
1984
1972
1942
1919
1919
1900
1944
1967
2028
2034
2055
2076
2093
2074
2039
2052
2046
2065
2047
2064
2083
2115
2164
2202
2222
2244
2278
2258
2238
2223
2197
2160
2122
2104
2008
1967
1942
1872
1840
1782
1739
1699
1705
1668
1654
1658
1653
1671
1699
1734
1771
1826
1893
1897
1952
1949
1963
1969
1960
1960
1958
1941
1937
1988
1961
1996
1995
2028
2050
2056
2020
2019
2028
2030
2015
2020
1983
2002
1983
1951
1985
1967
1976
2046
2046
2071
2060
2043
2023
2004
1984
1960
1948
2016
1976
1907
1916
1896
1936
1916
1915
1906
1904
1918
1940
1976
1938
1930
2008
1946
1984
2015
2055
2079
2147
2183
2200
2199
2215
2163
2147
2131
2129
2134
2117
2129
2115
2141
2131
2137
2152
2168
2228
2294
2409
2514
2585
2710
2834
2959
3048
3123
3184
3169
3138
3047
2850
2718
2399
2136
1885
1637
1521
1197
1018
851
742
600
512
452
423
430
472
572
681
834
974
1118
1235
1369
1518
1601
1680
1765
1903
1957
2084
2190
2321
2410
2516
2600
2632
2647
2665
2664
2671
2630
2622
2595
2608
2551
2532
2528
2476
2408
2400
2386
2400
2351
2316
2255
2171
2093
2003
1940
1889
1852
1860
1856
1838
1865
1900
1863
1889
1919
1907
1886
1914
1925
1962
2006
2018
2000
2019
2004
2013
2003
2042
2116
2168
2215
2229
2241
2223
2231
2233
2231
2175
2172
2108
2064
2022
1995
1963
1954
1910
1905
1899
1923
1976
1979
1967
1967
1933
1943
1912
1929
1956
1970
2026
2047
2076
2098
2107
2101
2097
2075
2007
2008
1999
2042
2048
2063
2079
2072
2027
2018
1968
1967
1980
2008
2058
2160
2265
2393
2498
2552
2567
2563
2497
2431
2351
2241
2184
2080
2038
1980
1951
1961
1895
1894
1864
1857
1813
1799
1786
1814
1803
1802
1840
1858
1896
1951
1990
2004
2021
1986
1935
1887
1826
1830
1810
1808
1889
1873
1884
1843
1884
1871
1920
1946
1961
1982
2075
1936
1894
1897
1819
1846
1854
1874
1853
1863
1855
1865
1907
1791
1895
1814
1815
1834
1835
1878
1917
1966
1965
1969
1991
1970
1987
2000
2028
2047
2020
2010
2016
1964
1947
1931
1912
1922
1966
1984
2047
2232
2133
2214
2181
2167
2144
2117
2099
2130
2152
2131
2135
2248
2351
2157
2155
2139
2142
2123
2099
2086
2046
2054
2054
2052
2068
2096
2223
2096
2080
2077
2114
2086
2051
2062
2067
2238
2047
2060
2067
2075
2084
2071
2066
2057
2034
2007
2007
2007
1991
1992
2002
1999
2013
2051
2040
2051
2070
2065
2067
2064
2081
2065
2010
1991
1983
2015
2025
2047
2110
2153
2194
2231
2240
2166
2130
2087
2051
1980
1917
1885
1863
1839
1823
1807
1791
1832
1839
1869
1888
1921
1963
1994
2028
2032
2060
2028
2019
2022
2018
2039
2055
2057
2031
2041
2062
2159
2109
2073
2071
2055
2046
2019
2038
2006
2027
2028
2069
2080
2097
2093
2107
2072
2087
2019
1994
1963
1909
1931
1927
1966
1990
1992
2016
2013
2034
1983
1972
1967
2002
1985
1992
2001
1983
1997
1990
1995
2070
1963
1964
1891
1876
1850
1898
1874
1926
1972
2042
2084
2089
2106
2154
2152
2146
2151
2128
2107
2121
2086
2104
2105
2113
2098
2102
2057
2078
2067
2046
2049
2016
2017
1968
1938
1929
1928
1927
1955
1933
1986
2003
2042
2034
2054
2089
2043
2020
2035
2004
2006
2030
2050
2062
2063
2059
2048
2053
2049
2043
2072
2070
2095
2088
2068
2048
2023
2003
1996
1967
1944
1951
2047
1976
1934
1880
1858
1868
1889
1947
2053
2126
2250
2263
2287
2288
2276
2241
2167
2155
2097
2056
2034
2021
2034
2047
2011
2016
1979
1943
1892
1844
1808
1799
1787
1850
1847
1883
1913
1960
1967
1994
2006
2098
2004
2048
2025
2027
2034
2031
2213
2047
2100
2093
2104
2125
2152
2128
2182
2152
2177
2180
2176
2135
2070
2056
2018
1960
1921
1938
1962
1990
2031
2023
2057
2056
2071
2050
2082
2036
2054
2054
2057
2096
2153
2138
2153
2187
2203
2222
2188
2131
2112
2083
2032
1998
1972
1982
1995
2032
2050
2095
2092
2135
2049
2047
2017
2011
1991
1975
1955
2024
2013
2035
2057
2036
1987
1911
1846
1799
1792
1739
1712
1689
1701
1736
1791
1848
1902
1974
2078
2127
2144
2157
2110
2059
2010
1983
1977
1959
1994
2037
2078
2101
2112
2143
2182
2200
2149
2206
2186
2341
2131
2124
2073
2023
1974
1940
1936
1928
1962
2027
2023
1990
1984
1989
1971
1979
2014
2001
2059
2027
2013
2011
2002
2002
1976
1927
1932
1891
1906
1919
1962
2007
2057
2136
2183
2244
2259
2268
2177
2175
2047
1968
1921
1872
1863
1847
1882
1950
1987
2039
2200
2103
2140
2221
2272
2347
2437
2494
2558
2673
2762
2770
2823
2840
2857
2969
2847
2828
2760
2671
2512
2312
2096
1888
1628
1375
1181
999
908
807
754
686
717
726
751
788
863
969
1055
1174
1266
1411
1548
1678
1784
1930
2032
2139
2197
2280
2352
2380
2426
2450
2455
2460
2463
2424
2374
2306
2289
2258
2279
2317
2325
2328
2327
2334
2380
2343
2320
2331
2306
2290
2293
2311
2166
2116
2171
1967
1924
1860
1830
1819
1831
1875
1914
2013
2016
2045
2080
2074
2093
2064
2053
2019
2023
1991
1973
1958
1937
1936
1902
1896
1930
1942
1968
1984
2017
2031
2071
2143
2172
2162
2201
2210
2213
2206
2188
2179
2151
2157
2143
2130
2160
2129
2098
2056
2055
2056
2034
2029
2009
1960
1963
1978
1957
1975
1973
1983
2018
2008
2015
2032
2027
2063
2046
2029
2015
2013
2038
2008
1960
1955
1944
1998
2002
2053
2099
2206
2118
2229
2166
2180
2175
2184
2127
2103
2091
2067
2071
2060
2047
2044
2044
2026
2026
2006
1995
1987
2001
2016
2016
2007
2011
2019
2099
1966
1940
1911
1875
1787
1751
1727
1728
1682
1684
1728
1759
1817
1849
1870
1947
1913
1928
1927
1957
1943
1959
2020
2055
2095
2091
2088
2096
2039
1982
1944
1859
1805
1747
1728
1694
1708
1722
1806
1842
1876
1912
2015
1972
2023
2047
2051
2054
2063
2082
2090
2114
2155
2216
2262
2337
2386
2342
2306
2284
2194
2157
2075
1994
1980
1906
1865
1866
1823
1790
1889
1820
1821
1892
1935
1950
2003
2052
2108
2235
2197
2215
2199
2196
2170
2131
2122
2119
2157
2114
2128
2097
2080
2046
2031
2034
2022
2012
2034
2047
2025
2089
2089
2113
2183
2205
2187
2194
2116
2100
2053
2064
2056
2028
2015
2043
2081
2059
2031
2014
2008
2015
2012
2024
2055
2057
2086
2167
2231
2223
2236
2278
2259
2251
2175
2106
2023
1939
1884
1814
1813
1768
1793
1779
1809
1892
1936
2011
2019
2028
2045
2043
2058
2146
2028
2027
2033
2058
2093
2152
2126
2152
2150
2115
2066
1997
1960
1907
1963
1857
1856
1829
1839
1888
1905
1924
1942
1957
1975
1971
1941
2004
2007
2030
2013
2048
2060
2072
2083
2097
2093
2103
2098
2097
2097
2060
2039
2008
1981
1951
1952
1961
1960
1974
1964
1970
2005
1945
1935
1931
1972
1927
1932
1956
1985
2006
2021
2044
2066
2080
2038
2028
1962
1958
1944
1958
1956
1982
1969
2007
2064
2092
2115
2154
2153
2152
2160
2137
2155
2116
2095
2083
2096
2111
2159
2138
2153
2188
2157
2119
2077
2007
1949
1910
1870
1830
1822
1851
1897
1907
1983
2008
2067
2119
2135
2183
2174
2197
2191
2182
2170
2135
2092
2039
2001
1977
1901
1899
1863
1881
1902
1879
1896
1907
1926
1920
1927
1933
1930
1972
1964
1994
2008
2017
2048
1997
1987
1968
1983
1936
1939
1935
1943
1987
2000
2046
2070
2122
2077
2047
2025
1998
1968
1951
1980
2066
2047
2159
2109
2175
2173
2233
2208
2215
2221
2149
2170
2032
1987
1942
1925
1888
1916
1930
1920
1935
1948
1978
2202
2039
2062
2081
2179
2151
2111
2157
2131
2135
2139
2126
2164
2071
2030
1969
1909
1843
1811
1876
1796
1847
1877
1930
1993
2048
2097
2134
2148
2175
2195
2159
2155
2121
2079
2030
2018
2032
1991
2012
2009
2016
2017
2022
2016
1987
1951
1939
1930
1999
1970
2017
2020
2086
2107
2144
2129
2139
2130
2106
2106
2035
1989
1954
1933
1867
1949
1846
1872
1858
1829
1821
1811
1837
1840
1889
1916
1901
1906
1951
1975
2016
2031
2011
2023
2096
2082
2066
2053
2072
2050
2038
2064
2066
2077
2091
2071
2059
2033
2018
2021
1985
1984
1984
2007
2000
2017
2032
2019
2062
2020
2048
2047
2023
2062
2079
2095
2060
2094
2081
2063
2073
2053
2035
2034
2050
2088
2117
2184
2184
2204
2198
2185
2160
2131
2158
2146
2089
2096
2141
2123
2231
2104
2136
2180
2188
2231
2294
2349
2391
2455
2497
2546
2607
2702
2734
2753
2759
2804
2783
2681
2566
2465
2252
2108
1906
1744
1544
1319
1179
1027
931
881
779
699
642
598
559
633
675
757
881
1043
1224
1429
1594
1807
1931
2060
2142
2261
2326
2419
2515
2480
2499
2542
2573
2581
2564
2559
2585
2462
2426
2386
2355
2345
2315
2303
2280
2338
2247
2240
2216
2151
2098
2018
1974
1928
1895
1912
1935
1945
1896
1920
1899
1912
1903
1915
1952
1968
1951
1963
1968
1991
1984
1944
1935
1950
1895
1872
1856
1906
2009
2120
2280
2438
2536
2643
2547
2538
2462
2372
2322
2239
2173
2135
2086
2050
2017
1971
1940
1911
1889
1835
1816
1806
1816
1768
1732
1713
1711
1740
1817
1849
1904
1959
2000
2047
2095
2179
2303
2354
2405
2435
2388
2391
2281
2215
2148
2032
1980
1923
1854
1823
1709
1725
1684
1750
1819
1871
1963
2059
2082
2126
2167
2183
2178
2192
2232
2132
2178
2146
2158
2168
2204
2223
2194
2212
2191
2161
2147
2095
2048
2027
1978
1960
1918
1920
1947
1930
2035
1991
2031
2060
1997
1962
1899
1878
1799
1783
1770
1863
1780
1742
1719
1735
1672
1650
1635
1636
1640
1688
1755
1810
1854
1828
1892
1888
1881
1887
1989
2087
1930
1901
1891
1871
1843
1859
1862
1929
1977
2016
2045
2118
2130
2176
2179
2210
2179
2198
2168
2207
2220
2239
2274
2290
2279
2230
2177
2134
2067
2104
2034
2003
1975
1983
1957
1986
1987
2033
2088
2106
2150
2174
2187
2208
2199
2191
2162
2134
2083
2049
2067
2005
1971
1991
1936
1909
1899
1895
1886
1932
1988
2056
2090
2237
2144
2151
2166
2170
2166
2155
2167
2151
2116
2080
2063
2040
2023
1996
1978
1970
1983
1996
2018
2019
1977
1935
1946
1918
1914
1924
1904
1945
1945
1984
2005
2010
2048
2093
2011
1996
1999
2007
2033
2054
2062
2059
2116
2129
2157
2184
2176
2188
2195
2178
2200
2176
2134
2120
2066
2042
1989
1984
1927
2009
1874
1909
1910
1950
1978
2050
2087
2094
2098
2092
2103
2200
2051
2046
2036
2060
2088
2080
2117
2128
2106
2062
2071
1967
1893
1832
1789
1739
1725
1696
1683
1648
1675
1728
1770
1950
1945
1966
2051
2119
2172
2199
2240
2320
2288
2248
2195
2192
2143
2109
2118
2085
2105
2086
2098
2106
2122
2123
2096
2075
2106
2135
2103
2152
2128
2117
2132
2123
2089
2086
2045
2043
2014
2005
2052
2059
2063
2043
2018
1983
1916
1887
1815
1792
1774
1796
1848
1895
1949
1991
2025
2022
2075
2056
2087
2056
2036
2034
2020
2024
2013
1983
1979
1969
1980
2020
2003
1995
1963
1975
1975
1981
1988
1985
1971
2055
2011
2067
2063
2119
2163
2208
2228
2245
2217
2212
2132
2099
2058
2048
2019
2018
2023
2047
2054
1979
1959
1906
1848
1795
1778
1799
1751
1820
1848
1920
1944
1966
2134
2025
2078
2082
2142
2117
2121
2132
2144
2131
2153
2144
2129
2154
2133
2138
2092
2045
2000
2046
1936
1890
1860
1856
1822
1865
1871
1968
2065
2161
2192
2230
2240
2184
2150
2145
2089
2085
2038
2049
2015
2018
2023
2029
2001
1989
1966
1981
1992
2004
1985
2007
1990
1989
1995
1981
1932
1934
1930
1927
1964
1924
1969
1969
1967
1952
1951
1983
1983
2037
2040
2056
2055
2161
2162
2154
2154
2191
2165
2164
2187
2190
2221
2266
2275
2290
2280
2259
2162
2121
2051
1999
1992
1928
1888
1847
1826
2018
1859
1843
1863
1912
1928
1911
1907
1887
1959
1907
1910
1960
1971
2017
2015
2010
2015
2017
1986
2016
1992
1980
1977
1946
1887
1897
1923
1945
1927
1978
1990
2026
2054
2088
2092
2084
2102
2101
2057
2039
2020
1959
1964
1970
2094
2032
2035
2068
2078
2063
2055
2059
2077
2080
2095
2103
2114
2120
2142
2167
2201
2178
2199
2168
2131
2062
1998
1992
1879
1851
1812
1855
1863
1896
1935
2051
2262
2274
2209
2224
2251
2251
2218
2199
2146
2118
2112
2065
2080
2023
2021
2015
2055
2047
2022
2008
1968
1891
1816
1829
1832
1891
1952
1992
2063
2092
2154
2138
2132
2138
2133
2118
2115
2144
2179
2227
2307
2392
2466
2543
2634
2703
2743
2829
2873
2915
2954
2915
2832
2785
2647
2522
2362
2184
1882
1675
1500
1259
1041
905
768
685
630
614
643
647
728
768
823
964
1075
1176
1297
1396
1496
1614
1711
1813
1916
2029
2132
2211
2263
2324
2379
2414
2450
2446
2462
2481
2503
2469
2456
2394
2311
2256
2224
2180
2183
2171
2192
2198
2191
2154
2122
2114
2080
2094
2119
2158
2223
2207
2248
2231
2174
2155
2120
2065
2059
2047
2052
1976
1980
1972
1998
2015
2046
2069
2171
2079
2084
2087
2104
2131
2097
2055
2080
2030
2119
2011
2016
2005
1998
1994
2071
1998
2005
2026
2028
2064
2015
1986
1945
1929
1940
1892
1902
1946
1951
1984
2003
2043
2025
2069
2042
2057
2023
2044
2013
2049
2073
2139
2170
2212
2216
2220
2195
2211
2212
2180
2140
2133
2104
2096
2049
2005
1983
1947
1909
1911
1930
1926
1935
1967
1964
1970
1973
1998
2017
2055
2091
2114
2112
2092
2131
2118
2143
2149
2153
2168
2212
2201
2165
2140
2093
2040
2005
1994
1940
1894
1867
1862
1845
1838
1881
1868
1831
1845
1914
1887
1914
1940
1941
1952
1862
1831
1782
1762
1714
1745
1699
1716
1689
1719
1727
1767
1792
1862
1876
1930
1953
1983
2020
2064
2111
2119
2171
2198
2240
2251
2281
2247
2215
2104
2060
1891
1829
1807
1776
1780
1819
1834
1850
1875
1927
1950
2004
2039
2055
2123
2157
2175
2199
2223
2211
2176
2138
2126
2094
2085
2096
2139
2140
2167
2166
2118
2121
2136
2139
2174
2195
2198
2266
2181
2180
2185
2259
2162
2129
2088
2032
1984
1933
1901
1914
1920
2003
1955
1973
1972
1967
1968
1932
1993
1990
2042
2036
2175
2223
2078
2084
2108
2115
2096
2051
1983
1956
1896
1858
1840
1846
1867
1894
1974
1992
2020
2043
2060
2090
2110
2144
2125
2117
2104
2129
2094
2108
2106
2119
2195
2143
2135
2110
2038
2036
1991
1976
1972
1953
1961
1952
1948
1918
1925
1931
1940
1959
1962
1960
1972
1920
1916
1962
1955
1991
2081
2107
2088
2112
2122
2128
2128
2083
2045
2067
2148
1996
1951
1867
1846
1819
1944
1897
1956
2057
2084
2115
2160
2185
2228
2255
2181
2161
2143
2117
2106
2111
2098
2095
2031
1988
1946
1910
1907
1863
1863
1855
1887
1895
1885
1907
1977
1984
2011
2015
2031
2003
2034
2027
2062
2057
2062
2077
2090
2067
2095
2072
2093
2050
2056
2032
2039
1984
1967
1951
1972
1990
1973
2000
2039
2063
2073
2110
2144
2150
2156
2129
2107
2076
2027
1995
1991
1968
1939
1936
1943
2030
1930
1936
1965
1988
2004
2015
2007
1972
2157
2005
1988
2046
2011
1970
2000
1967
1955
1980
1974
1975
2038
2063
2063
2123
2107
2159
2157
2178
2215
2182
2111
2112
2011
1961
1933
1972
1831
1832
1810
1872
1862
1904
1936
2064
1998
2023
2050
2155
2153
2125
2170
2125
2153
2170
2168
2174
2128
2118
2037
1993
1982
1926
1906
1889
1876
1879
1892
1905
1976
1992
2068
2092
2111
2101
2122
2095
2084
2040
2042
2031
2007
2039
2026
2023
2022
2026
2011
2024
2040
2015
2012
2048
2076
2128
2143
2195
2210
2190
2180
2157
2136
2098
2094
2060
2051
2031
2007
1964
1931
1920
1925
1928
1940
1969
1947
1981
2009
1991
2008
2024
1973
1943
1881
1903
1881
1888
1900
1914
1906
1957
1953
1942
1939
1927
1954
1941
1977
1947
1921
1919
1875
1904
1920
1948
1930
2027
2010
2062
2027
2041
2018
2039
2013
2018
2038
2031
2060
2040
2047
2038
2054
2067
2076
2070
2036
2025
2013
2011
2098
2122
2139
2135
2167
2188
2220
2223
2264
2226
2199
2134
2084
2048
1963
1935
1932
1927
1928
1912
1895
1860
1823
1822
1825
1856
1919
1926
1957
1997
2030
2056
2109
2114
2118
2181
2180
2258
2267
2291
2283
2239
2208
2157
2125
2132
2133
2163
2256
2344
2438
2539
2652
2740
2809
2860
2912
2909
2871
2872
2791
2698
2559
2399
2214
2002
1790
1507
1281
1049
831
645
512
403
342
331
360
456
584
727
894
1062
1200
1406
1559
1657
1824
1948
2079
2203
2290
2411
2502
2539
2624
2648
2720
2723
2652
2599
2517
2443
2387
2390
2354
2332
2336
2296
2275
2239
2257
2231
2192
2175
2138
2139
2069
2045
1990
1971
1951
1927
1922
1945
1978
2022
2069
2096
2143
2177
2149
2163
2137
2139
2144
2115
2168
2158
2127
2112
2086
2046
2015
1980
1958
1933
1887
1838
1831
1823
1783
1811
1803
1823
1901
1975
2082
2066
2065
2133
2151
2193
2256
2304
2321
2298
2301
2263
2431
2210
2310
2179
2113
2074
2040
1975
1934
1877
1819
1764
1716
1684
1699
1681
1633
1631
1682
1712
1810
1890
2069
2196
2267
2370
2426
2464
2415
2377
2320
2275
2245
2223
2188
2189
2155
2135
2120
2091
2073
2009
2051
2022
1968
1955
2071
1977
1969
1975
1917
1886
1858
1856
1822
1808
1746
1718
1697
1737
1791
1907
2040
2121
2175
2249
2312
2296
2311
2336
2274
2212
2163
2063
1970
1897
1826
1759
1708
1695
1790
1728
1748
1812
1780
1775
1820
1776
1757
1742
1743
1743
1776
1782
1810
1854
1875
1939
1926
1878
1871
1865
1841
1829
1802
1796
1928
1796
1810
1853
1915
1992
2083
2177
2236
2282
2295
2350
2352
2323
2276
2270
2235
2189
2186
2121
2075
2039
2048
1983
1988
1999
2027
2055
2098
2154
2197
2220
2242
2230
2250
2303
2292
2267
2294
2283
2234
2213
2170
2154
2072
1992
1934
1863
1812
1738
1720
1717
1738
1734
1774
1831
1875
1943
1980
2029
2042
2082
2109
2146
2191
2211
2279
2264
2299
2259
2195
2135
1969
1859
1808
1731
1731
1792
1859
1933
2036
2109
2167
2208
2219
2206
2224
2171
2195
2164
2215
2190
2234
2239
2239
2230
2160
2116
1999
1944
1839
1756
1681
1647
1578
1560
1484
1438
1463
1506
1583
1680
1806
1958
2061
2153
2223
2305
2380
2407
2445
2479
2487
2523
2548
2528
2450
2383
2210
2038
2030
1797
1727
1695
1626
1602
1610
1648
1712
1814
1904
2011
2078
2133
2215
2229
2267
2303
2344
2331
2346
2312
2275
2176
2101
2024
1936
1879
1776
1686
1650
1594
1609
1675
1759
1828
1901
1995
2056
2136
2187
2218
2247
2236
2253
2194
2208
2163
2130
2127
2073
2073
2003
1968
1963
1927
1920
1856
1761
1679
1616
1623
1704
1802
1996
2172
2318
2469
2502
2503
2486
2461
2435
2347
2303
2245
2175
2108
2072
2064
1976
1924
1881
1777
1727
1703
1683
1691
1746
1773
1875
1934
2038
2097
2167
2196
2223
2192
2155
2115
2109
2059
2048
2008
1976
1990
1950
1959
1936
1927
1909
1901
1920
1897
1905
1940
1927
1943
1945
1999
2058
2133
2209
2289
2333
2354
2344
2280
2195
2082
1968
1896
1820
1785
1761
1740
1744
1849
1794
1815
1835
1871
1913
1919
1987
2006
2086
2193
2247
2265
2306
2327
2345
2316
2232
2142
2081
2006
1943
1942
1911
1891
1901
1932
1948
2008
2030
2027
2057
2053
2047
2043
2047
2043
1984
1944
1936
1919
1955
2018
2015
2012
2081
2069
2062
2059
2092
2038
2051
2032
2006
2045
2022
2021
2046
2041
2083
2048
2092
2048
2007
1977
1963
1976
1967
1979
1987
2022
2074
2067
2083
2095
2084
2088
2069
2048
2031
2130
2072
2077
2089
2095
2113
2140
2107
2103
2112
2090
2206
2034
2011
2024
1989
1942
1932
1936
1939
1937
1970
1943
1951
1943
1937
1954
1925
1884
1890
1877
1886
1887
1887
1931
1939
1974
1964
1981
1974
1985
2135
2030
2055
2075
2048
2094
2079
2095
2111
2120
2112
2119
2103
2092
2046
2039
1975
1942
1931
1945
2000
2019
2038
2105
2119
2135
2131
2129
2114
2104
2066
2021
2006
1979
1938
1924
1919
1878
1863
1855
1851
1911
1919
1978
2025
2047
2061
2072
2073
2048
2037
2027
2041
2038
2049
2055
2064
2049
2045
2055
2052
2041
2014
2015
2025
2072
2066
2095
2149
2187
2233
2273
2335
2386
2450
2560
2653
2726
2850
2924
3008
3072
3049
3069
3024
2937
2842
2736
2587
2384
2343
1969
1703
1377
1155
942
833
727
687
663
707
726
780
796
808
864
864
956
1007
1118
1395
1324
1398
1542
1642
1755
1885
2024
2129
2227
2318
2445
2491
2563
2580
2600
2610
2626
2626
2630
2648
2647
2649
2634
2519
2407
2284
2168
2093
2063
2016
1977
1963
2000
1989
1996
2010
1999
2087
2016
2026
2066
2061
2060
2061
2079
2050
2086
2076
2087
2084
2112
2116
2122
2126
2136
2148
2162
2165
2173
2151
2152
2093
2062
2008
2001
2014
1955
1992
1984
1996
2010
2057
2062
2167
2114
2167
2151
2148
2136
2103
2076
2047
2031
2030
2052
2049
2080
2071
2010
1986
1966
2089
1886
1870
1846
1843
1794
1832
1838
1857
1889
1896
1928
2001
1999
2021
2000
2014
2015
2045
2100
2116
2113
2129
2143
2179
2162
2167
2158
2144
2113
2057
2048
2046
2042
2046
2047
2063
2096
2088
2081
2137
2177
2189
2251
2167
2142
2116
2070
2052
2028
2001
1959
1927
1966
1943
1928
1982
1921
1912
1908
1925
1899
1926
1883
1906
1916
1910
1860
1846
1842
1850
1858
1840
1807
1769
1755
1721
1712
1710
1716
1743
1768
1782
1768
1767
1776
1781
1804
1824
1841
1848
1855
1890
1895
1918
1951
1988
2043
2071
2232
2153
2189
2242
2274
2257
2275
2243
2246
2223
2204
2180
2191
2111
2112
2102
2071
2096
2064
2071
2082
2099
2074
2072
2167
2071
2096
2110
2086
2099
2084
2037
2050
2037
2058
2055
2050
2080
2126
2118
2147
2176
2152
2157
2249
2104
2153
2130
2008
1959
1930
1970
1979
1996
2003
2024
2065
2138
2143
2220
2165
2088
2050
2011
1972
1983
1928
1915
1904
1931
1950
1979
2031
2063
2066
2041
2011
1961
1937
1937
1921
1905
1931
1976
2030
2111
2132
2159
2182
2151
2159
2130
2119
2105
2098
2092
2106
2088
2068
2074
2063
2083
2036
2037
2003
2016
1991
1986
1984
1959
1960
1918
1882
1831
1857
1891
2086
1990
2027
2099
2103
2132
2126
2192
2098
2091
2063
2099
2048
2039
2035
2012
2026
1954
1954
1906
1886
1911
1935
1986
2012
2039
2106
2088
2136
2116
2120
2107
2087
2035
1999
1979
1985
1953
1937
2015
1968
1984
1958
1920
1911
1922
1923
1930
1933
1968
1970
1963
2019
1955
2003
1984
2007
2035
2104
2098
2135
2173
2178
2228
2204
2193
2198
2167
2148
2090
2084
2048
2024
2018
2002
1992
1985
1964
1972
1986
2007
2036
2086
2103
2256
2147
2176
2176
2175
2104
2083
1981
1934
1973
1874
1802
1781
1776
1767
1782
1792
1801
1790
1802
1839
1824
1879
1917
1957
2196
2005
2048
2025
2053
2079
2114
2117
2126
2136
2161
2171
2100
2055
1991
1970
1952
1967
1998
2023
2064
2087
2086
2067
2096
2138
2026
2043
2008
2009
2035
2072
2098
2116
2126
2176
2178
2165
2172
2144
2155
2099
2079
2028
2000
1986
1957
1966
2036
2007
2064
2048
2079
2030
2070
2031
2045
2088
2050
2030
2003
1996
1997
1962
1963
1997
2065
2168
2027
2036
1997
2015
2075
2010
1962
1927
1897
1892
1912
1911
1921
1939
1944
1917
1926
1891
1947
1893
1907
1891
1861
1892
1922
1961
1986
2043
2074
2095
2102
2135
2108
2127
2123
2124
2156
2180
2187
2221
2236
2267
2242
2218
2189
2236
2178
2192
2179
2196
2131
2115
2076
2064
2018
2028
1997
1981
1951
1969
1972
1954
1948
1961
1941
1974
1946
1966
2006
2005
2035
2031
2038
2026
2007
1939
1924
1860
1836
1847
1888
1968
2011
2051
2063
2125
2135
2110
2150
2072
2090
2042
2025
1948
1964
1907
1871
1885
1895
1915
1960
1925
1898
1846
1815
1810
1782
1823
1924
2071
2119
2223
2236
2264
2261
2295
2282
2274
2256
2216
2181
2261
2110
2096
2079
2060
2070
2059
2077
2064
2035
1983
1986
1927
1799
1731
1670
1623
1621
1688
1760
1882
1990
2094
2149
2215
2227
2218
2203
2178
2128
2119
2087
2092
2087
2069
2097
2074
2082
2093
2081
2078
2057
2016
1977
1884
1832
1741
1684
1647
1682
1707
1743
1809
1931
2023
2131
2244
2351
2447
2593
2672
2774
2879
2977
3051
3109
3163
3183
3194
3190
3164
3070
2975
2794
2614
2424
2211
2004
1799
1615
1419
1265
1049
855
681
529
511
402
393
434
483
567
687
833
945
1103
1222
1365
1496
1651
1703
1793
1887
1951
2049
2100
2106
2150
2133
2194
2280
2414
2533
2611
2662
2695
2681
2677
2656
2618
2588
2680
2534
2464
2415
2353
2315
2215
2151
2094
2005
1954
1913
1898
1859
1883
1910
1904
1939
1919
1939
1972
1989
2055
2136
1954
1944
1907
1928
1958
1989
2054
2102
2159
2206
2232
2284
2307
2306
2303
2294
2260
2251
2215
2211
2194
2182
2174
2135
2112
2031
1986
1920
1876
1817
1833
1791
1779
1820
1841
1884
1919
2047
2141
2092
2106
2115
2111
2110
2083
2062
2055
2070
2050
2075
2056
2033
2047
2047
2043
2084
2090
2087
2161
2094
2140
2140
2180
2181
2203
2207
2209
2184
2184
2148
2089
2027
1992
1945
2020
1980
1976
2019
2019
1967
1959
1959
1960
1947
1968
1960
1966
2012
2045
2069
2147
2143
2161
2160
2166
2124
2051
2012
1959
1926
1847
1822
1760
1721
1707
1706
1712
1727
1741
1757
1793
1824
1802
1854
1834
1875
1875
1926
1963
1882
1943
1940
1936
1977
1952
1945
1967
1936
1939
1978
1922
1895
1877
1852
1844
1842
1877
1827
1853
1861
1885
1903
1967
2022
2042
2044
2037
2027
2030
2061
2039
2090
2062
2112
2150
2141
2126
2211
2080
2047
2031
2036
2063
2110
2155
2145
2295
2240
2271
2280
2260
2268
2256
2195
2175
2134
2136
2098
2054
2029
1978
1976
1962
1971
1994
2022
1993
2013
2023
2010
2008
1984
1957
1968
1950
1954
1975
1948
1997
2005
2023
2054
2075
2062
2071
2081
2092
2148
2171
2189
2194
2192
2215
2240
2184
2148
2115
2064
2041
2016
2002
2000
2000
2028
2025
2021
1984
1959
1984
1935
1954
1953
1993
1991
2006
2030
2075
2093
2099
2113
2119
2118
2114
2078
2050
2055
2016
2003
1963
1983
1968
1983
1936
1978
1968
2000
1982
2003
1989
1989
1974
1958
1938
1927
1927
1924
1939
1989
2050
2072
2079
2087
2075
2050
2030
2064
2026
1982
1990
1989
1984
2044
1977
1999
2016
2015
2032
2071
2071
2094
2078
2102
2116
2110
2102
2077
2062
2023
2021
1986
1966
1918
1948
1956
1969
1992
2029
2096
2127
2178
2167
2207
2176
2155
2111
2093
2080
2028
2000
1954
1906
1861
1854
1821
1788
1826
1791
1823
1875
1907
2109
2014
2029
2090
2248
2153
2206
2213
2256
2256
2262
2267
2271
2201
2166
2060
2047
1965
1919
1920
1857
1830
1806
1767
1727
1723
1742
1764
1840
1853
1901
1983
2015
2072
2079
2101
2136
2148
2162
2163
2171
2208
2223
2212
2217
2188
2150
2145
2032
1971
1875
1812
1768
1765
1718
1728
1765
1803
1888
1943
2052
2079
2123
2187
2191
2221
2317
2310
2334
2443
2331
2326
2306
2237
2162
2055
1935
1907
1858
1815
1828
1825
1851
1847
1862
1890
1895
1881
1898
1922
1972
1992
2038
2066
2071
2128
2131
2154
2127
2137
2105
2034
2001
1900
1858
1739
1682
1687
1689
1711
1803
1914
2044
2135
2176
2181
2198
2240
2288
2287
2290
2296
2276
2258
2237
2196
2158
2101
2111
2069
2082
2094
2092
2081
2043
2010
1933
1872
1867
1911
1831
1839
1850
1890
1880
1950
1911
1956
1971
1993
2032
2070
2075
2141
2145
2138
2130
2096
2063
2063
2006
1970
1915
1930
1915
1962
1964
2012
2100
2136
2375
2232
2239
2186
2172
2116
2069
2026
1975
1919
1903
1883
1887
1896
1916
1923
1916
1924
1866
1874
1890
1952
1965
1994
2020
2031
2050
2069
2085
2118
2124
2080
2052
2045
1993
1975
1934
1887
1884
1938
1887
1919
1935
1982
2035
2023
2067
2087
2135
2270
2123
2101
2137
2116
2154
2133
2094
2098
2087
2089
2112
2054
2072
2011
2006
1985
2011
1980
2012
2011
1978
2014
1999
2151
2046
2140
2029
2012
1972
1974
1940
1953
1947
1976
2034
2047
2069
2105
2152
2144
2187
2148
2158
2114
2123
2110
2071
2048
2111
2080
2176
2203
2232
2346
2345
2424
2450
2483
2570
2613
2671
2755
2823
2896
2944
2959
2938
2882
2740
2568
2347
2099
1846
1564
1312
1035
815
674
528
464
430
474
493
583
698
799
951
1094
1263
1428
1549
1716
1838
1981
2048
2137
2188
2251
2279
2312
2360
2383
2349
2279
2239
2218
2139
2125
2139
2147
2201
2280
2324
2351
2400
2391
2371
2379
2363
2318
2351
2336
2316
2315
2328
2275
2257
2207
2133
2066
1968
1966
1912
1912
1914
1954
2004
2060
2119
2219
2180
2155
2160
2127
2126
2047
2036
1973
1927
1909
1884
1891
1868
1863
1873
1898
1940
1988
2018
2031
2036
2066
2099
2069
2086
2079
2039
2022
2054
2055
2035
2108
2089
2138
2110
2115
2081
2111
2084
2081
2066
2071
2092
2088
2119
2144
2148
2144
2117
2089
2070
2063
2053
2079
2067
2072
2111
2031
2023
2005
2000
1984
1980
1931
1931
1918
1949
1956
1964
1991
2047
2062
2094
2105
2071
2114
2021
1990
1939
1834
1792
1769
1794
1847
1891
1986
2031
2088
2104
2133
2130
2147
2133
2151
2109
2104
2109
2130
2096
2096
2056
2041
1998
1975
1944
1898
1856
1816
1774
1792
1782
1813
1808
1826
1809
1835
1812
1821
1807
1801
1816
1777
1754
1744
1783
1825
1883
1943
1967
2032
2012
2018
1963
2005
1923
1936
1967
1959
1980
2025
2063
2166
2209
2239
2299
2442
2309
2280
2266
2229
2209
2171
2160
2152
2147
2128
2115
2103
2075
2033
1998
1944
1942
1946
1964
1972
1982
2037
2093
2088
2104
2111
2142
2136
2156
2120
2110
2104
2083
2053
2050
2061
2068
2056
2055
2035
2017
2023
1978
1983
1991
2026
2085
2074
2087
2049
2047
2032
2062
2003
2002
1981
1955
2035
1979
1993
2066
2064
2070
2076
2048
2040
2044
2020
2019
2035
2034
2034
2040
2036
2046
2047
2068
2079
2073
2071
2016
1978
1936
1920
1923
1944
1930
1967
1959
2003
1964
1966
1980
1990
1990
1983
2043
2083
2108
2121
2127
2178
2127
2126
2119
2086
2083
2081
2055
2058
2055
2061
2067
2060
2044
2018
1991
1955
1929
1923
1944
1917
1922
1914
1928
1934
1934
1976
2006
2018
2018
2018
2016
1992
2017
1987
1980
1988
2015
2027
2007
1955
1896
1812
1731
1732
1710
1822
1859
2035
2143
2190
2272
2321
2359
2357
2320
2288
2271
2185
2105
2082
2080
2047
2039
2012
2001
2012
1974
1922
1860
1794
1795
1765
1762
1771
1815
1904
1961
2111
2166
2266
2259
2274
2280
2244
2250
2184
2168
2170
2114
2111
2076
2023
2023
1985
1971
1975
1987
1991
2038
2080
1948
1875
1838
1799
1830
1876
1927
1955
1983
2000
2004
2015
2019
2043
2038
2052
2072
2128
2119
2098
2072
2058
2039
2018
1989
1969
1946
1894
1903
1962
2003
2039
2090
2087
2039
2032
2005
1992
1994
2046
2064
2086
2115
2141
2171
2186
2194
2212
2192
2187
2144
2132
2127
2129
2134
2100
2079
2006
1937
1826
1796
1784
1804
1822
1896
1960
1983
1968
1968
1988
2047
2037
2047
2064
2047
2058
2068
2089
2062
2058
2007
1942
1903
1823
1834
1742
1748
1753
1817
1820
1908
1975
2019
2052
2065
2143
2155
2200
2240
2237
2247
2242
2247
2188
2177
2143
2158
2130
2147
2173
2197
2226
2210
2199
2142
2106
2014
1975
1911
1878
1873
1918
1888
1905
1939
1960
1984
2026
1982
1947
1924
1947
1938
1912
1903
1925
1925
1936
1985
1993
2015
2024
2006
1987
1967
1963
2038
1968
1924
1946
1970
2004
2098
2188
2287
2366
2448
2620
2678
2741
2816
2893
3061
3094
3105
3040
2984
2807
2681
2558
2447
2331
2145
1969
1792
1587
1408
1102
962
805
724
626
572
573
632
791
816
888
1037
1161
1281
1403
1530
1741
1894
2007
2134
2239
2336
2375
2433
2457
2482
2528
2519
2520
2510
2528
2463
2407
2360
2283
2220
2170
2117
2106
2101
2104
2089
2095
2114
2128
2148
2224
2182
2161
2135
2088
2056
2024
2024
2038
2151
2166
2211
2176
2164
2104
2052
2030
2002
1984
1977
1973
1968
1965
1963
1960
2001
2022
2002
2021
2030
2021
2042
2035
2012
1987
1987
2014
1996
1999
1991
1983
1979
2039
2049
2081
2094
2092
2105
2115
2152
2173
2209
2168
2159
2174
2113
2118
2107
2107
2120
2111
2131
2072
2018
1999
1920
1885
1872
1863
1882
1884
1896
1929
1963
2023
2067
2100
2127
2180
2192
2243
2227
2243
2249
2240
2236
2211
2203
2171
2143
2115
2062
2008
1948
1900
1876
1861
1859
1866
1825
1812
1831
1850
1883
1899
1911
1922
1928
1911
1856
1823
1823
1803
1833
1841
1872
1875
1879
1869
1856
1861
1865
1862
1863
1842
1828
1820
1832
1859
1880
1905
1915
1918
1947
1968
2015
2014
2048
2091
2180
2158
2184
2137
2216
2115
2065
2043
2025
1991
1959
1918
1886
1870
1872
1888
1905
1930
1962
1969
2012
2081
2075
2111
2152
2183
2221
2221
2263
2276
2294
2332
2279
2250
2202
2140
2112
2025
2005
2002
2031
2046
2025
1999
2016
1967
1980
2005
1993
2000
2038
2076
2081
2196
2107
2101
2117
2077
2093
2075
2074
2080
2057
2036
2034
2042
2041
2039
2008
2044
2048
2046
2072
2035
1998
1965
1955
1968
1911
1900
1920
1928
2092
2014
2071
2098
2121
2176
2144
2126
2089
2102
2037
1984
1958
1954
1970
1986
1987
1987
2000
2013
2068
2063
2101
2075
2074
2182
2072
2056
2005
1987
1971
1987
1955
1989
1972
1985
2159
2047
2045
2060
2067
2073
2065
2080
2106
2119
2142
2144
2141
2146
2081
2055
1992
1957
1960
1965
2009
2013
2027
2040
2032
2015
2003
2006
1959
1943
1936
1951
1942
1944
1901
1880
1858
1896
1920
1919
1935
1968
1975
2015
2046
2091
2099
2099
2123
2125
2120
2091
2073
2031
2034
2027
1989
1991
1997
1993
1999
2022
2016
2050
2060
2089
2120
2158
2156
2179
2158
2132
2147
2135
2135
2115
2076
2058
1980
1970
1885
1820
1776
1840
1818
1860
1906
1952
1945
1963
2057
1959
2031
2034
2108
2124
2133
2147
2163
2160
2131
2113
2124
2109
2077
2074
2036
2056
2027
2020
2002
2002
1973
1987
1994
1973
2017
2004
2011
2015
1995
2041
1999
2052
2008
2054
2072
2017
2047
2041
2040
2033
2004
1989
1975
1973
1995
2003
2059
2057
2055
2064
2044
2011
1975
2014
2028
1977
2014
2057
2064
2098
2121
2144
2143
2091
2067
2052
2026
2036
2034
2049
2052
2058
2063
2076
2055
2051
2029
1987
1987
1960
1958
1921
1898
1865
1888
1894
1956
1968
1982
2047
1985
1989
2079
1960
1916
1889
1890
1897
1914
1919
1947
1988
2007
2000
2016
2011
2086
2101
2297
2218
2249
2255
2230
2185
2150
2123
2079
2049
1991
1944
1952
1887
1846
1818
1810
1824
1851
1936
1968
2017
2071
2111
2169
2175
2195
2232
2223
2221
2206
2199
2182
2137
2103
2019
1983
1937
1927
1904
1890
1839
1890
1849
1847
1873
1932
1957
1963
2020
2042
2064
2089
2097
2120
2217
2382
2480
2538
2613
2682
2811
2843
2880
2918
2973
3011
3009
2966
2880
2747
2499
2264
2040
1809
1603
1300
1116
933
822
681
593
553
558
595
689
735
883
1010
1145
1279
1434
1597
1679
1796
1863
1966
2087
2183
2252
2313
2337
2359
2377
2411
2429
2482
2503
2514
2547
2503
2492
2481
2458
2396
2353
2287
2222
2169
2114
2075
2024
1994
1974
1943
1981
1993
2038
2120
2165
2203
2359
2256
2247
2208
2190
2150
2119
2099
2084
2043
2035
2028
1989
1939
1961
1894
1874
1859
1844
1855
1872
1887
1943
1980
2072
2005
1997
2016
2024
2015
2003
2013
2021
2056
2087
2135
2176
2183
2208
2156
2112
2103
2039
1990
1961
1950
1948
1961
2045
2060
2132
2133
2180
2164
2179
2172
2142
2104
2071
2024
2006
1994
1991
2017
2048
2047
2058
2091
2088
2123
2080
2074
2049
2080
2048
2052
2076
2242
2051
2040
2006
1979
1919
1898
1831
1836
1865
1882
1928
2002
2051
2087
2154
2140
2119
2099
2085
2032
1981
1936
1930
1870
1858
1847
1861
1863
1881
1896
1908
1901
1895
1898
1876
1853
1848
1803
1806
1819
1832
1849
1896
1831
1839
1839
1862
1911
1919
1966
1989
2027
2082
2081
2047
2013
1999
1998
1971
1951
1951
1937
1950
1959
2002
2030
2033
2096
2080
2126
2138
2192
2231
2220
2212
2185
2163
2103
2070
2039
2025
2005
2008
2015
2011
2012
2039
2042
2064
2088
2120
2167
2170
2232
2232
2211
2190
2183
2104
2064
2032
1984
1990
1947
1962
2028
1963
1986
1987
2024
2007
2044
2054
2287
2122
2144
2120
2091
2123
2135
2123
2084
2061
2041
2046
1995
1982
1968
1959
2034
1949
1977
2019
2055
2113
2153
2142
2164
2096
2046
2000
1962
1916
1905
1928
1955
2006
1995
1998
2010
1991
2002
1975
1978
1931
1909
1931
1963
2018
2050
2144
2143
2160
2152
2129
2070
2056
2060
1992
2134
1987
1970
1954
1927
1931
1986
1999
2034
2058
2068
2107
2069
2099
2100
2128
2122
2162
2145
2193
2137
2142
2102
2101
2052
2011
1967
1899
1863
1808
1799
1791
1881
1907
2002
2041
2047
2136
2016
2001
1922
1956
1949
1981
1992
2002
1984
1959
1938
1909
1909
1867
1887
1898
1903
1951
1993
2159
2152
2256
2295
2303
2321
2280
2248
2212
2177
2109
2083
2027
2040
2034
2014
2005
1959
1930
1920
1892
1896
1872
1894
1938
1974
2062
2096
2151
2190
2214
2138
2069
2035
1974
1931
1883
1874
1850
1845
1832
1840
1868
1918
1933
2004
2076
2079
2078
2058
2056
2053
2053
2064
2082
2091
2125
2124
2133
2126
2115
2059
2028
1979
1967
1968
1951
2028
2056
2080
2094
2137
2177
2250
2115
2059
2004
1961
1887
1879
1881
1895
1859
1876
1969
1900
1920
2011
1952
1978
2015
2042
2087
2111
2148
2169
2199
2219
2260
2242
2228
2186
2151
2105
2042
1973
1892
1855
1859
1847
1840
1835
1848
1854
1875
1904
1927
1975
2035
2088
2295
2204
2227
2272
2224
2184
2151
2113
2049
2003
1984
1969
1956
1974
1979
1980
1984
2004
2030
2064
2113
2102
2122
2124
2166
2152
2173
2134
2046
1959
1912
1904
1882
1859
1862
1880
1892
1903
1922
1935
1983
2022
2042
2075
2104
2108
2093
2079
2064
2010
1946
1923
1929
1928
1968
1982
1988
1962
1939
1967
1947
1938
1934
1957
1970
2082
2128
2128
2208
2194
2192
2184
2147
2132
2059
2008
1927
1890
1863
1893
1920
1985
1995
2038
2070
2129
2139
2173
2185
2179
2132
2111
2080
2073
2080
2031
2045
2001
1999
2095
2004
2000
1993
1951
1944
1942
1960
1972
1968
1994
1984
2001
2000
1998
2032
2075
2113
2153
2195
2272
2333
2480
2571
2659
2772
2849
2945
2975
2999
2999
2937
2848
2811
2710
2559
2403
2147
1911
1705
1490
1327
1093
866
748
666
543
507
586
621
748
887
968
1167
1282
1427
1540
1666
1840
1942
2064
2107
2182
2252
2264
2290
2288
2312
2298
2254
2258
2243
2214
2227
2247
2210
2234
2218
2247
2322
2291
2308
2283
2255
2247
2225
2207
2219
2210
2206
2163
2156
2097
2073
2031
1985
1957
1955
1963
1979
2024
2056
2107
2101
2221
2213
2220
2225
2208
2224
2121
2078
2041
2006
2023
2023
2024
2019
2008
2043
2038
2032
2044
2068
2045
2047
2041
2039
2035
2031
2059
2025
2048
1996
1945
1919
1887
1888
1879
1902
1923
1943
2048
2047
2086
2110
2111
2125
2154
2172
2184
2186
2152
2148
2106
2196
2090
2079
2040
2016
1942
1887
1870
1887
1904
1974
2050
2039
2146
2094
2088
2150
2124
2136
2123
2126
2100
2072
2051
2026
2000
1958
1952
1935
1923
1942
2038
1975
2000
1971
1965
1948
1921
1904
1913
1898
1939
2000
1985
2030
2061
2135
2129
2103
2054
1992
1912
1827
1780
1691
1651
1640
1636
1641
1660
1682
1715
1775
1840
1903
1970
2032
2113
2096
2083
2085
2090
2049
2036
2208
2007
1997
1976
1960
1939
1924
1887
1891
1871
1891
1942
2008
2143
2188
2234
2272
2297
2234
2160
2158
2108
2111
2114
2143
2156
2174
2176
2170
2136
2114
2121
2103
2079
2089
2111
2134
2155
2132
2140
2051
2007
1970
1962
1959
1930
1934
1924
1906
1960
1949
2014
2032
2058
2110
2152
2153
2171
2171
2190
2194
2200
2200
2190
2199
2119
2110
2070
2052
2007
2010
1946
1907
1908
1834
1793
1813
1777
1791
1822
1873
1932
1958
1998
2007
2100
2112
2127
2182
2160
2147
2108
2099
2082
2064
2023
2005
1976
1975
1990
2004
2029
2043
2071
2092
2103
2122
2089
2111
2127
2128
2104
2055
2017
1984
1955
1945
1938
1929
1920
1932
1986
2018
2035
2061
2064
2082
2117
2131
2159
2143
2130
2095
2050
1999
1959
1934
1881
1847
1850
1856
1873
1928
1936
1979
1984
2022
2059
2074
2071
2096
2045
2039
2047
2059
2076
2092
2128
2099
2071
2058
2044
1975
1921
1901
1906
1936
1949
2015
2013
2030
2047
2054
2067
2069
2130
2054
2062
2024
2005
1992
1977
1979
2128
1989
2007
2011
2023
2080
2081
2068
2082
2059
2051
2051
2057
2062
2062
2016
1994
1984
1969
1992
2035
2034
2064
2087
2099
2129
2071
2046
2035
2028
2032
1989
1985
2007
1977
1956
1981
1982
1938
1956
1975
2035
2036
2076
2098
2123
2134
2107
2079
2110
2024
2072
2055
2031
2057
2089
2077
2057
2019
1996
1926
1859
1897
1896
1899
1928
1984
2016
2040
2071
2095
2090
2072
2050
2041
2021
2020
2016
1990
1962
1935
1977
2000
2033
2014
2007
2022
2046
2073
2080
2120
2095
2128
2113
2133
2156
2159
2155
2103
2065
2019
1991
1986
1919
1893
1887
1860
1865
1905
1927
1971
1998
2039
2055
2066
2082
2092
2100
2071
2068
2052
2050
2056
2075
2096
2105
2128
2147
2176
2169
2154
2140
2117
2070
2046
1994
1956
1920
1876
1871
1903
1915
1944
1942
1955
1976
1973
2019
2019
2039
2063
2076
2086
2058
2085
2046
2056
2051
2068
2105
2095
2105
2072
2056
2021
2018
1978
1976
1951
1937
1919
1889
1847
1801
1808
1799
1824
1878
1886
1927
1942
1968
1981
1991
2013
2033
2048
2022
2021
2039
2043
2023
2036
2037
2041
2064
2056
2080
2088
2119
2093
2112
2088
2070
2039
2132
1996
1989
2002
2032
2047
2055
2079
2092
2119
2141
2141
2127
2099
2084
2067
2051
2028
2027
2010
1987
1943
1948
1946
1924
1947
1996
1978
1974
1959
1946
1941
1919
1928
1929
1937
1939
1928
1895
1917
1923
1965
2004
2130
2141
2161
2223
2244
2290
2333
2369
2398
2432
2494
2570
2571
2641
2721
2797
2853
2894
2972
2996
3009
3003
2950
2876
2816
2688
2530
2328
2093
1839
1545
1290
1059
840
656
533
447
409
375
406
464
541
636
739
901
1059
1217
1351
1442
1539
1584
1616
1683
1767
1892
2038
2160
2299
2399
2499
2535
2572
2570
2578
2570
2563
2568
2550
2544
2531
2515
2471
2435
2419
2367
2345
2283
2239
2193
2141
2097
2080
2083
2069
2072
2048
2046
2036
2012
2009
1984
1969
1971
1999
2014
2013
2024
2018
1992
1955
1967
1975
1998
2031
2048
2091
2102
2076
2070
2093
2094
2119
2139
2146
2115
2089
2092
2087
2092
2087
2109
2097
2116
2092
2053
2010
1992
1967
1923
1894
1875
1833
1838
1872
1927
1972
2019
2072
2113
2132
2134
2139
2154
2094
2082
2063
2068
2047
2076
2065
2071
2048
2039
2030
2060
2047
2067
2069
2066
2063
2047
2026
2007
1988
2010
2041
2059
2088
2100
2111
2143
2160
2159
2181
2164
2156
2143
2120
2087
2061
2045
2031
2080
2042
2013
2001
1991
1943
1960
1907
1893
1865
1851
1849
1867
1874
1888
1878
1874
1888
1899
1870
1872
1869
1847
1837
1808
1793
1780
1796
1862
1824
1832
1829
1844
1869
1879
1897
1919
1926
1962
1982
1984
1984
1985
1998
2013
2026
2025
2028
1997
1977
1933
1928
1929
1923
1991
1912
1935
1960
1978
1994
2010
2043
2064
2047
2065
2055
2075
2063
2075
2099
2104
2109
2124
2122
2131
2153
2176
2150
2128
2094
2062
2047
2023
2000
1982
1987
2000
1990
2023
1991
2018
2024
2037
2057
2075
2095
2118
2095
2090
2102
2113
2144
2170
2196
2210
2207
2204
2177
2143
2129
2103
2098
2115
2153
2126
2112
2068
2038
1984
1935
1912
1874
1878
1888
1895
1916
1933
1982
2000
2025
2036
2041
2029
2028
2033
2027
1998
1995
1930
1955
1943
1955
1948
1969
1997
2074
2124
2130
2138
2133
2103
2091
2059
2058
2017
2024
2045
2074
2077
2087
2095
2098
2108
2117
2109
2100
2084
2064
2023
1978
1931
1869
1864
1855
1886
1912
1940
1977
2013
2045
2059
2063
2074
2072
2077
2098
2078
2059
2085
2083
2071
2056
2043
2027
2032
2041
2035
1981
1996
1954
1925
1880
1853
1860
1877
1923
2007
2054
2095
2132
2142
2149
2151
2135
2119
2144
2112
2239
2121
2099
2088
2039
1992
1902
1846
1803
1783
1806
1793
1835
1867
1904
1963
2018
2065
2100
2111
2128
2166
2201
2215
2243
2274
2209
2155
2089
2030
1975
1919
1868
1839
1831
1830
1860
1881
1931
1959
2016
2017
2047
2047
2099
2111
2107
2120
2123
2136
2123
2095
2095
2049
2015
2006
1935
1910
1889
1886
1882
1884
1870
1873
1883
1894
1941
1972
1975
2039
2061
2114
2128
2168
2192
2192
2184
2171
2167
2209
2170
2156
2134
2098
2068
2026
2016
1984
1968
1980
1984
2039
2023
2039
2044
2050
2068
2069
2050
2015
1982
1960
1911
1912
1912
1915
1941
1959
1991
1990
2003
2019
1975
1966
1969
1955
1979
1997
2040
2016
2017
2042
2092
2081
2090
2085
2127
2117
2094
2084
2041
1983
1974
1952
1951
2003
1980
2013
2002
2008
2026
2045
2048
2047
2063
2073
2101
2116
2137
2119
2093
2089
2062
2042
2042
1999
1966
1930
1907
1883
1904
1899
1881
1912
1918
1927
1951
1966
1998
2008
2031
2052
2050
2056
2087
2085
2079
2072
2073
2077
2080
2113
2067
2080
2099
2096
2094
2115
2120
2148
2175
2203
2228
2228
2211
2170
2124
2080
2039
2007
2027
1998
2005
2019
2110
2036
2025
2013
2016
1994
1977
1939
1929
1871
1852
1830
1786
1794
1762
1778
1825
1861
1886
1898
1886
1947
1976
1978
1975
1992
1960
1992
1993
2019
2046
2063
2073
2070
2064
2056
2030
2020
2006
1982
2003
1920
1932
1952
1927
1963
1976
1995
2045
2067
2091
2121
2179
2177
2183
2197
2196
2215
2171
2150
2098
2052
2034
2019
1978
2071
1934
1952
2000
1964
1994
2005
2028
2081
2122
2161
2192
2220
2225
2212
2197
2147
2089
2036
1997
1947
1943
1958
1930
1925
1919
1877
1846
1857
1882
1925
1976
2062
2133
2207
2331
2418
2550
2664
2740
2834
2907
2975
3024
3066
3088
3100
3067
3002
2902
2772
2591
2322
2096
1758
1489
1216
994
774
580
463
384
343
377
480
572
694
803
967
1149
1267
1404
1532
1676
1767
1852
1931
1997
2067
2145
2228
2317
2425
2479
2511
2498
2447
2299
2304
2290
2243
2216
2193
2177
2150
2152
2128
2113
2131
2134
2167
2178
2224
2203
2215
2208
2172
2143
2118
2067
2057
2043
2020
2046
2037
2044
2049
2046
2056
2054
2083
2114
2120
2138
2163
2176
2186
2179
2152
2124
2073
2025
1988
1922
1939
1902
1907
1912
1915
1951
1983
2039
2096
2127
2167
2192
2192
2193
2187
2152
2151
2093
2092
2019
1975
1958
1943
1934
1935
1922
1919
1936
1919
1961
1968
1965
1995
2002
2033
2039
2047
2070
2067
2088
2087
2106
2128
2106
2070
2017
1998
1994
2008
2046
2084
2136
2167
2207
2224
2259
2247
2213
2197
2203
2165
2154
2147
2127
2114
2105
2090
2095
2102
2088
2078
2046
1931
1991
1951
1913
1904
1895
1902
1894
1881
1886
1888
1882
1887
1893
1903
1932
1927
1929
1913
1922
1931
1919
1912
1919
1932
1928
1979
1941
1903
1828
1766
1710
1677
1662
1702
1714
1775
1816
1838
1884
1927
1964
1981
2000
2020
2032
2027
2017
1983
1971
1957
1960
1963
1977
1955
1945
2005
1945
1910
1920
1925
1943
2001
2044
2069
2115
2136
2152
2118
2200
2211
2216
2204
2197
2179
2188
2175
2181
2168
2194
2175
2163
2161
2134
2135
2063
2039
1984
1961
1894
1868
1864
1864
1892
1908
1913
1917
1926
1926
1946
1957
2007
2046
2095
2121
2174
2193
2209
2227
2249
2263
2277
2248
2263
2218
2170
2128
2074
2038
2024
2019
2028
2050
2059
2091
2096
2127
2142
2179
2142
2141
2090
2034
1951
1878
1817
1796
1790
1842
1875
1894
1930
1962
2004
2002
1998
1974
1959
1943
1953
1983
2020
2053
2087
2119
2160
2186
2357
2186
2135
2122
2052
2020
1982
1956
1952
1952
1956
1983
2006
2043
2050
2051
2058
2121
2020
2013
2019
2037
2081
2095
2120
2204
2133
2103
2080
2080
2030
1995
1971
1943
1920
1909
1892
1889
1895
1913
1921
1944
1945
1935
1964
1963
1973
2011
2025
2064
2078
2076
2064
2080
2125
2147
2163
2175
2164
2152
2136
2088
2061
2024
2039
1987
2000
1995
2004
2031
2034
2047
2052
2056
2035
2022
1987
1962
1947
1915
1943
1921
1927
1962
1979
1996
1998
1961
1956
1977
1969
1991
2006
2033
2075
2113
2167
2194
2147
2144
2123
2094
2096
2084
2046
2002
2040
2031
2088
2095
2113
2132
2077
2051
2032
2019
1991
1983
1975
1954
1935
1942
1968
1947
1945
1943
1955
1959
1985
1985
1995
2015
2029
2072
2068
2056
2072
2046
2052
2038
2056
2099
2142
2031
2005
1975
1939
1899
1847
1828
1804
1840
1830
1862
1903
1959
1987
2010
2041
2050
2092
2117
2133
2150
2156
2158
2159
2150
2154
2109
2087
2053
2027
1999
1988
1991
1990
2008
2021
2047
2030
2011
2004
1992
2192
1994
2039
2047
2022
2024
2040
2002
2013
2042
2045
2055
2082
2084
2117
2098
2122
2075
2080
2039
2006
1968
1957
1904
1879
1914
1948
1975
2005
2036
2067
2054
2055
2093
2108
2110
2127
2130
2103
2133
2124
2119
2067
2064
2038
2038
1993
1992
1976
1970
2010
1984
1995
1988
1991
1992
2003
2007
2031
2061
2055
2067
2067
2056
2032
2035
2034
2051
2062
2065
2067
2079
2092
2071
2046
2017
1989
1963
1929
1915
1889
1859
1845
1840
1829
1840
1845
1839
1867
1891
1912
1907
1920
1929
1959
1985
2022
2035
2053
2066
2100
2114
2134
2150
2175
2175
2172
2152
2123
2087
2044
2003
1972
1961
1959
1944
1956
2004
1987
1987
2015
2032
2009
2128
2064
2056
2070
2015
1983
1984
1958
1939
1948
1956
2007
1999
2026
2048
2051
2060
2044
2071
2100
2086
2097
2107
2136
2135
2168
2151
2118
2091
2067
2083
2019
1986
1966
1961
1948
1968
1962
2010
2064
2074
2119
2171
2177
2175
2183
2164
2160
2170
2199
2248
2323
2486
2514
2610
2685
2757
2819
2871
2855
2952
2933
2927
2909
2839
2744
2602
2399
2185
1923
1661
1394
1145
927
740
603
512
460
414
447
504
579
715
834
997
1155
1285
1420
1515
1612
1694
1777
1881
2003
2127
2249
2355
2450
2527
2568
2628
2599
2542
2538
2488
2449
2406
2381
2370
2360
2321
2283
2336
2318
2256
2226
2199
2169
2115
2066
2022
1983
1962
1984
1986
1978
1984
1970
1994
1995
2007
2035
2037
2031
2048
2064
2090
2112
2130
2141
2135
2129
2140
2122
2113
2086
2074
2051
2021
1981
1959
1945
1952
1972
1994
1995
2003
2031
2037
2046
2076
2102
2135
2131
2152
2174
2161
2178
2119
2110
2099
2079
2049
2038
2000
1978
1935
1894
1849
1839
1910
1917
1986
1987
2057
2076
2079
2101
2084
2071
2035
2047
2036
2027
2032
2035
2052
2097
2079
2099
2107
2133
2111
2124
2077
2049
2030
2035
2027
2039
2073
2091
2100
2144
2109
2129
2106
2087
2057
2027
2034
2048
2062
2094
2111
2106
2127
2100
2108
2050
2031
2008
1951
1908
1859
1814
1792
1780
1761
1781
1751
1742
1742
1735
1773
1806
1847
1887
1912
1944
1963
1957
1939
1936
1906
1891
1865
1873
1867
1856
1847
1830
1831
1835
1838
1850
1856
1865
1936
1989
2009
2051
2077
2119
2090
2048
1995
1984
1887
1858
1840
1820
1821
1840
1852
1906
1933
2001
2065
2154
2201
2279
2332
2337
2368
2371
2368
2343
2323
2269
2249
2234
2200
2167
2131
2082
2077
2032
2039
1991
1979
1951
1902
1906
1909
1906
1923
1962
1992
2007
2044
2067
2071
2192
2089
2095
2103
2102
2093
2127
2079
2089
2058
2031
2018
2018
2015
2007
2011
1933
1975
1973
1979
1987
1993
2020
2027
2040
2042
2043
2035
2036
2033
2050
2051
2063
2077
2121
2119
2162
2166
2191
2207
2183
2169
2156
2133
2109
2079
2074
2057
2052
2042
2020
1994
1970
1952
1907
1892
1899
1871
1911
1925
1948
1973
1992
2021
2040
2031
2046
2070
2046
2016
1965
1943
1893
1878
1895
1910
1938
1953
1994
2036
2063
2080
2102
2094
2084
2099
2109
2118
2100
2122
2099
2128
2087
2108
2107
2138
2137
2134
2123
2085
2042
1995
1964
1939
1912
1887
1875
1873
1924
1907
1943
1989
2012
2032
2014
2023
2018
1999
1984
1956
1938
1903
1873
1858
1843
1840
1825
1849
1876
1941
1978
2022
2050
2070
2072
2072
2074
2095
2119
2127
2151
2203
2183
2228
2122
2071
2075
2038
2036
2036
2054
2085
2074
2092
2104
2109
2114
2096
2088
2056
2035
2009
2000
2029
2013
2032
2047
2061
2105
2132
2104
2116
2138
2136
2102
2040
1991
1929
1889
1897
1906
1875
1866
1874
1869
1863
1858
1856
1833
1840
1902
1939
1994
2075
2161
2230
2248
2275
2272
2223
2196
2148
2111
2088
2104
2057
2039
2016
2007
1984
1976
1959
1942
1937
1918
1943
1888
1896
1863
1915
1941
1983
2019
2076
2101
2103
2098
2084
2084
2093
2086
2058
2059
2017
1965
1912
1893
1871
1900
1943
1987
2046
2072
2108
2103
2109
2122
2139
2149
2135
2125
2160
2156
2152
2141
2133
2060
2042
2048
1984
1979
1947
1935
1936
1942
1954
1957
1949
1952
1959
1966
1977
1993
2032
2026
2022
2024
2036
2042
2052
2082
2122
2180
2268
2272
2283
2273
2212
2144
2066
2024
1978
1956
1923
1924
1928
1922
1906
1907
1889
1884
1855
1845
1814
1806
1792
1792
1812
1850
1859
1896
1920
1934
1986
2011
2036
2044
2056
2059
2047
2031
1993
1979
1999
1999
2044
2124
2162
2168
2182
2183
2160
2138
2118
2090
2091
2063
2047
2029
2032
2027
2040
2038
2043
2043
2026
2005
1979
1965
1958
1953
1960
1960
1960
1999
2023
2075
2062
2075
2076
2067
2069
2053
2056
2020
1977
1948
1962
2041
1942
1968
1983
1990
1994
1995
1987
1998
2008
2017
2028
2047
2052
2075
2115
2109
2119
2159
2159
2161
2170
2164
2163
2218
2258
2332
2356
2428
2564
2592
2663
2784
2858
2962
3015
3047
3027
2999
2912
2832
2691
2522
2339
2137
1900
1676
1477
1272
1088
906
748
624
535
494
467
484
525
596
710
848
987
1133
1275
1417
1554
1710
1788
1887
2022
2090
2188
2256
2332
2362
2432
2447
2485
2505
2527
2560
2556
2526
2512
2435
2357
2281
2208
2166
2135
2138
2156
2178
2156
2161
2178
2174
2181
2176
2162
2155
2143
2161
2167
2183
2175
2168
2128
2119
2087
2058
2011
1966
1951
1939
1940
1966
1994
2010
2022
2041
2065
2119
2081
2084
2028
1996
1977
1988
1972
2003
2010
1992
1977
1972
1963
1946
1963
1987
2013
2038
2072
2112
2135
2164
2181
2182
2182
2179
2171
2175
2210
2089
2090
2059
2099
2091
2104
2119
2114
2118
2082
2067
2038
2032
2037
2047
2027
2023
2016
2011
2002
1990
1971
1968
1942
1934
1951
1939
1920
1909
1912
1915
1934
1968
2022
2045
2083
2136
2140
2160
2187
2227
2211
2187
2180
2175
2115
2094
2063
2041
2034
2013
2007
1996
1971
1950
1917
1938
1918
1917
1951
1910
1884
1879
1855
1848
1844
1908
1908
1972
2015
2051
2049
2045
2002
1934
1863
1792
1760
1715
1705
1672
1694
1703
1731
1768
1838
1837
1857
1871
1892
1899
1883
1879
1886
1883
1914
1959
1979
2014
2044
2083
2140
2161
2193
2197
2201
2167
2150
2108
2083
2081
2047
2030
2005
1980
1955
1960
1955
1976
1996
2048
2049
2049
2052
2050
2070
2067
2103
2129
2138
2122
2176
2167
2211
2219
2219
2230
2208
2195
2181
2173
2172
2127
2098
2053
2023
1995
1956
1943
1942
1942
1956
1960
1961
1989
2004
2031
2048
2045
2043
2060
2047
2036
2020
2005
1987
1994
1992
2033
2068
2098
2123
2160
2156
2154
2147
2146
2111
2110
2087
2083
2061
2014
1984
1954
1902
1904
1903
1918
1902
1895
1907
1908
1921
1925
1947
1965
2023
2019
2048
2088
2094
2113
2117
2102
2096
2076
2048
2025
2018
1994
2002
2025
2015
1996
2020
1995
2148
2035
2029
2037
2046
2035
2046
2021
2025
2047
2066
2085
2107
2147
2175
2207
2166
2139
2087
2066
2010
1967
1925
1908
1936
1905
1933
1902
1914
1912
1914
1903
1909
1895
1909
1930
1962
1974
2014
2134
2102
2126
2128
2151
2141
2126
2108
2083
2061
2059
2066
2062
2044
2046
2021
2006
1978
2002
2016
2023
2039
2051
2040
2038
2018
2039
2071
2079
2110
2111
2116
2109
2087
2029
1995
2001
1941
1919
1921
1927
1945
1965
1968
1967
1970
1983
2003
2009
2017
2057
2053
2046
2034
2007
2012
1982
1979
1978
1976
1973
1976
1953
1955
1952
1976
1986
2010
2064
2100
2122
2182
2164
2158
2123
2098
2088
2068
2043
2020
2002
1990
1947
1963
1983
1988
2018
2027
2037
2059
2066
2075
2082
2076
2063
2043
2039
2026
2012
2039
1981
1949
1937
1923
1911
1904
1902
1907
1925
1927
1950
1959
1959
2007
1998
2001
2043
2081
2112
2121
2109
2116
2112
2101
2086
2084
2066
2065
2067
2094
2079
2089
2087
2092
2072
2064
2066
2058
2057
2023
2008
1980
1948
1934
1915
1922
1939
1969
1993
2020
2036
2043
2017
2016
2002
1988
1982
1993
1970
1976
1984
1982
1999
2030
2071
2118
2150
2148
2169
2104
2117
2034
2017
2027
2056
2116
2143
2171
2159
2134
2091
2046
2025
2001
1988
2051
1983
1990
1990
1986
1975
2000
1998
2000
1999
1995
1994
2020
2047
2059
2090
2104
2102
2108
2064
2048
2030
2018
2020
2020
2020
2001
1983
1946
1905
1885
1846
1819
1843
1816
1829
1822
1832
1841
1845
1838
1836
1863
1896
1928
1959
1982
2019
2062
2080
2108
2132
2147
2164
2169
2154
2159
2164
2151
2167
2155
2148
2130
2146
2139
2089
2064
2050
2006
1991
1991
1973
1964
1952
1947
1950
1997
2019
2049
2098
2134
2138
2132
2106
2059
2015
1963
1909
1878
1866
1844
1833
1851
1888
1934
1985
2044
2136
2159
2178
2190
2176
2136
2134
2137
2115
2126
2126
2120
2107
2111
2106
2080
2097
2094
2121
2161
2193
2216
2252
2283
2369
2404
2488
2561
2661
2751
2873
2933
2972
3049
3010
2976
2912
2821
2685
2518
2301
2074
1823
1677
1335
1087
879
713
576
488
448
445
455
488
551
653
761
879
1034
1180
1330
1471
1587
1696
1790
1868
1947
2065
2151
2248
2340
2414
2464
2499
2514
2526
2543
2567
2558
2552
2543
2544
2517
2471
2423
2349
2292
2223
2179
2169
2153
2131
2156
2128
2120
2111
2122
2095
2103
2109
2152
2176
2170
2132
2119
2086
2077
2059
2037
2013
2002
2002
1971
1969
1939
1967
1948
1972
1977
1991
1987
1973
1953
1939
1947
1968
1992
2055
2049
2045
2049
2047
2041
2042
2041
2037
2041
2027
2046
2047
2069
2100
2126
2165
2177
2189
2187
2168
2148
2142
2072
2080
2005
1992
1953
1960
1953
1972
1971
2005
2040
2041
2065
2073
2052
2035
2021
2019
1977
2002
1982
1986
2007
2018
2026
2096
2063
2075
2104
2106
2095
2091
2092
2091
2101
2160
2122
2129
2154
2136
2147
2128
2083
2080
2047
2020
2016
1991
1998
2015
2040
2049
2173
2069
2026
2006
1962
1930
1838
1853
1816
1806
1807
1816
1829
1872
1874
1871
1946
1887
1887
1889
1885
1855
1831
1886
1785
1777
1779
1790
1848
1879
1930
1991
2007
2001
2002
1997
1974
1975
1951
1938
2026
1965
2013
1992
2020
2011
1996
1997
1985
1974
1984
1936
1899
1883
1879
1879
1888
1915
1943
1992
2136
2099
2120
2139
2152
2129
2100
2063
2069
2054
2082
2110
2123
2143
2156
2158
2172
2163
2155
2158
2129
2147
2136
2150
2171
2189
2200
2204
2214
2191
2179
2176
2148
2124
2107
2064
2063
2084
2068
2063
2073
2051
2020
2002
1976
1946
1922
1904
1909
1915
1965
1972
1975
1954
1941
1933
1926
1927
1957
1969
2004
2014
2052
2066
2064
2066
2039
2021
2028
2055
2042
2015
2011
2038
2000
2036
2034
2031
2029
2042
2062
2086
2105
2119
2116
2135
2123
2135
2136
2122
2104
2078
2058
2047
2047
2062
2123
2116
2111
2135
2117
2068
2058
2054
2021
1998
1971
1954
1919
1923
1856
1880
1908
1926
1943
1956
2019
2002
2011
2021
2039
2049
2058
2052
2047
2039
2048
2048
2013
2012
2003
2008
2007
1983
1978
1979
1939
1893
1924
1932
1939
2011
2103
2056
2074
2084
2107
2071
2056
2097
2070
2049
2029
2026
2028
2038
2055
2048
2076
2071
2082
2069
2087
2049
2119
2077
2057
2066
2087
2100
2080
2065
2052
2034
2015
1990
1968
1923
1925
1927
1929
1959
1968
1975
1967
1954
1935
1926
1914
1931
1932
1955
1988
1957
1936
1904
1862
1872
1876
1896
1943
2037
2081
2135
2208
2210
2217
2208
2190
2148
2131
2112
2109
2136
2136
2067
2062
2054
2063
2034
2046
2060
2068
2071
2063
2031
2013
1967
1981
1915
1911
1936
1963
1983
2005
2012
1983
1941
1956
1945
1936
1965
1992
2013
2039
2060
2080
2093
2131
2111
2110
2076
2047
2029
2018
1983
1977
1977
1995
1999
2015
2030
2046
2061
2059
2050
2043
2033
1998
1959
1957
1958
1973
1999
2015
2011
2048
2112
2084
2057
2051
2022
2018
1999
1996
1992
2004
2013
2044
2051
2061
2061
2064
2068
2068
2065
2079
2076
2027
2014
2013
1954
1917
1891
1887
1866
1875
1887
1917
1974
2006
2031
2055
2186
2129
2130
2137
2159
2188
2196
2179
2176
2165
2132
2087
2048
2025
2016
2015
2024
1998
1999
1961
1951
1974
2008
2016
2032
2050
2035
2036
2034
2034
2059
2120
2119
2126
2102
2102
2110
2068
2069
2070
2072
2047
2052
2046
2045
2037
1991
1930
1912
1883
1904
1948
1945
1982
1968
1962
1966
1946
1947
1953
1975
1970
1970
1951
1927
1895
1903
1914
1936
1967
1998
2046
2022
2046
2062
2065
2083
2079
2086
2065
2079
2030
1991
1963
1937
1926
1922
1911
1906
1903
1902
1921
1975
1998
2037
2079
2115
2148
2152
2165
2165
2174
2170
2184
2169
2167
2147
2111
2084
2055
2023
2043
2014
1992
1976
1971
1978
1993
2020
2044
2089
2123
2125
2114
2183
2059
2036
2001
2002
1983
1977
1986
1983
2005
2002
1995
1984
1966
1995
1981
1996
2097
2106
2268
2280
2363
2509
2616
2736
2848
2944
3051
3144
3231
3243
3229
3180
3070
2893
2687
2439
2204
1931
1675
1407
1196
997
819
698
599
519
483
467
463
521
561
635
736
879
1020
1158
1333
1482
1604
1726
1895
1974
2098
2195
2290
2341
2375
2395
2422
2432
2429
2450
2446
2436
2417
2398
2362
2312
2293
2245
2180
2167
2196
2207
2249
2306
2307
2307
2280
2288
2261
2233
2195
2187
2159
2112
2063
2026
2019
2019
2035
2032
2046
2052
2058
2042
2040
2044
2047
2068
2055
2071
2080
2080
2098
2079
2075
2084
2064
2079
2056
2039
2033
2027
2019
2016
2006
2018
2026
2056
2061
2085
2092
2071
2052
2008
1994
1973
1968
1935
1919
1913
1927
1941
1938
1929
1963
1981
1981
1985
2009
2031
2064
2092
2120
2157
2186
2221
2227
2244
2212
2154
2128
2082
2058
2070
2005
2006
2011
2007
2039
2076
2112
2111
2113
2104
2098
2096
2083
2112
2163
2120
2124
2095
2079
2064
2044
2023
2006
1995
1997
1995
1968
1954
1949
2014
2012
2043
2059
2084
2063
2035
2024
2006
1961
1968
1919
1908
1911
1903
1864
1886
1884
1880
1873
1887
1879
1880
1889
1922
1913
1859
1845
1845
1838
1791
1805
1766
1764
1768
1792
1778
1770
1776
1793
1775
1799
1806
1810
1832
1831
1877
1926
1962
2007
2057
2105
2129
2145
2140
2133
2161
2128
2085
2074
2068
2076
2093
2095
2128
2135
2141
2140
2166
2176
2182
2187
2233
2230
2231
2231
2184
2148
2132
2112
2100
2094
2128
2097
2091
2067
2050
2044
2032
2034
2040
2037
2047
2035
2044
1999
1980
1936
1901
1872
1883
1904
1937
1968
2008
2110
2055
2067
2091
2102
2110
2079
2048
2035
2016
2008
2003
2047
2062
2065
2064
2081
2078
2048
2063
2089
2091
2089
2087
2086
2098
2115
2122
2120
2116
2138
2150
2162
2145
2124
2112
2081
2045
2002
1956
1919
1879
1866
1894
1904
1945
1985
2033
2070
2078
2097
2114
2110
2116
2104
2058
2024
2007
2006
1963
1949
1967
1947
1939
1926
1939
1937
1950
1928
1918
1948
1918
1909
1915
1929
1962
1994
2039
2050
2046
2098
2103
2108
2131
2148
2152
2116
2100
2082
2064
2073
2061
2113
2086
2095
2104
2070
2065
2047
2031
2032
2017
2020
2031
2048
2061
2079
2112
2075
2063
2050
2014
2017
1996
1980
1945
1930
1922
1911
1911
1909
1935
1943
1967
1993
2000
2021
1975
1944
1924
1923
1908
1911
1907
1917
1934
1954
1998
2007
2056
2077
2101
2112
2114
2145
2138
2140
2154
2176
2200
2210
2195
2194
2190
2143
2130
2113
2091
2081
2074
2072
2064
2024
2011
1974
1970
1968
1951
1954
1926
1918
1920
1866
1866
1891
1922
1936
1954
1966
1985
1975
1980
1990
1961
1986
1954
1946
1944
1950
1960
1960
1997
2034
2091
2080
2128
2102
2083
2107
2098
2079
2086
2062
2080
2083
2119
2123
2145
2115
2181
2145
2114
2087
2076
2047
2013
1986
1974
1969
2042
1986
2006
2007
2023
2004
2016
2025
1974
1959
1931
1907
1866
1864
1926
1922
1958
2016
2040
2063
2111
2148
2169
2160
2163
2128
2091
2056
2115
1970
1968
1935
1981
1981
1959
1959
1943
1924
1931
1917
1947
1974
1989
2023
2044
2060
2089
2099
2100
2115
2122
2080
2071
2010
1965
1948
1939
1985
2005
2057
2107
2142
2161
2210
2212
2160
2155
2107
2056
2064
2025
2048
2060
2074
2094
2112
2116
2119
2128
2126
2090
2088
2033
1972
1923
1912
1895
1854
1845
1833
1830
1829
1835
1822
1892
1894
1911
1895
1887
1903
1906
1931
1964
1968
2001
2042
2097
2075
2077
2082
2065
2080
2059
2074
2069
2069
2079
2111
2138
2178
2194
2176
2151
2103
2067
2027
2015
1974
1951
1953
1958
1953
1970
1964
1966
1961
1953
1941
1944
1948
1967
2002
1998
2042
2080
2110
2102
2071
2052
2051
2049
2046
2056
2177
2127
2114
2129
2117
2087
2075
2031
2030
2039
2016
2021
2030
2032
2010
2000
2000
2007
2026
2067
2079
2091
2120
2113
2098
2092
2079
2139
2167
2216
2274
2338
2406
2479
2572
2680
2792
2902
2976
3039
3040
3039
2996
2910
2823
2678
2514
2300
2076
1839
1587
1348
1115
899
732
582
504
450
426
470
519
608
715
827
968
1120
1270
1412
1569
1704
1818
1911
1982
2054
2116
2178
2228
2279
2344
2377
2431
2466
2475
2501
2496
2478
2484
2455
2448
2463
2429
2409
2411
2423
2362
2380
2343
2299
2227
2176
2106
2056
2012
2019
2015
2007
2017
2023
2023
2019
2021
2030
2031
2034
2021
2007
1984
1963
1984
1966
1959
1974
1995
2014
2040
2046
2068
2085
2096
2113
2094
2105
2072
2040
2014
2002
2024
2024
2010
2036
2026
2044
2058
2081
2092
2096
2080
2096
2086
2065
2046
2002
1992
1996
1969
1985
1991
2003
2024
2016
2002
2014
2004
2024
2003
2028
2041
2063
2094
2140
2192
2270
2296
2289
2282
2201
2141
2098
2069
2016
1980
1958
1968
1968
1983
2019
2056
2064
2076
2055
2039
2047
2042
2072
2064
2060
2053
2079
2084
2075
2090
2091
2091
2080
2080
2057
2062
2038
2013
1978
1954
1916
2000
1882
1910
1899
1896
1887
1845
1861
1792
1752
1727
1719
1763
1771
1808
1837
1869
1911
1867
1848
1823
1813
1822
1850
1896
1930
1962
2003
2030
2036
2042
2030
2010
1992
1969
1939
1946
1937
1924
1905
1912
1925
1941
1987
2020
2036
2045
2053
2070
2047
1998
1972
1928
1889
1878
1874
1886
1928
1983
2044
2123
2195
2209
2239
2239
2251
2231
2230
2242
2205
2187
2159
2142
2132
2123
2120
2156
2146
2115
2103
2094
2055
2037
2011
2015
2023
2179
2034
2083
2066
2071
2060
2058
2020
1960
1945
1913
1906
1905
1931
1959
2010
2031
2047
2063
2087
2123
2116
2119
2121
2093
2062
2042
2007
1997
2049
2072
2073
2035
2011
1999
1994
1983
2002
2018
2048
2048
2049
2079
2095
2103
2116
2115
2123
2153
2134
2134
2107
2096
2072
2048
2038
2007
2004
2015
2050
2065
2066
2090
2087
2092
2075
2066
2032
2013
1967
1926
1904
1895
1882
1876
1915
1937
1953
1991
2014
2046
2076
2114
2103
2134
2111
2112
2077
2071
2047
2034
2005
1995
2005
2032
2024
2003
1998
2047
1957
1946
1910
1902
1899
1871
1875
1881
1897
1916
1955
1987
2015
2060
2077
2104
2142
2153
2146
2173
2177
2181
2191
2185
2158
2127
2087
2044
2002
2004
2004
2019
2048
2048
2062
2063
2057
2046
2052
1990
1964
1924
1926
1934
1953
2016
2017
2039
2026
2023
2001
1978
1968
1961
1953
1960
1946
1940
1954
1973
2008
2023
2014
2020
2017
2026
2023
2011
2043
2046
2073
2096
2071
2078
2063
2073
2074
2057
2059
2047
2058
2048
2039
2023
1993
1966
1946
1953
1974
2011
2039
2072
2098
2088
2091
2079
2058
2051
2017
2013
2022
2021
2006
1999
2012
2026
2003
2016
1999
2005
1972
1954
1918
1895
1875
1906
1934
1928
1963
1993
2024
2055
2072
2085
2086
2100
2116
2127
2134
2128
2125
2112
2107
2067
2044
2040
2010
2013
2002
1978
1983
2000
2029
2021
2027
2037
2032
2036
2026
2052
2075
2095
2103
2142
2166
2177
2200
2191
2167
2152
2113
2094
2047
2006
1968
1922
1897
1872
1850
1816
1812
1791
1780
1785
1768
1752
1802
1832
1879
1891
1934
1984
1991
1979
1982
1972
1974
2009
2004
2025
2067
2095
2152
2117
2147
2160
2138
2142
2132
2118
2114
2108
2082
2063
2060
2077
2073
2112
2108
2112
2144
2165
2129
2112
2111
2064
2071
2033
2004
2007
1945
1926
1907
1912
1923
1950
1944
1951
1955
1962
1988
1982
1968
1972
1974
1967
1966
2020
2006
2020
2031
2058
2054
2064
2064
2071
2069
2069
2060
2062
2054
2053
2061
2087
2126
2208
2231
2263
2316
2370
2416
2442
2482
2536
2612
2694
2777
2864
2912
2942
2960
2952
2906
2829
2740
2575
2403
2192
1921
1684
1410
1172
965
786
646
576
518
508
511
579
605
723
809
922
1090
1228
1366
1522
1670
1791
1882
1989
2074
2129
2201
2257
2337
2400
2507
2541
2604
2582
2585
2539
2510
2474
2480
2412
2382
2377
2327
2334
2366
2344
2319
2309
2298
2273
2225
2154
2092
2035
1937
1892
1858
1868
1854
1875
1890
1927
1964
1983
2011
2037
2044
2045
2073
2071
2089
2112
2132
2138
2137
2116
2069
2016
2014
1971
1972
1950
1959
1959
1993
2001
2021
2034
2069
2079
2125
2158
2182
2121
2148
2067
2083
2073
2070
2050
2034
2051
2032
2015
2006
2038
2032
2057
2062
2041
2036
2066
2037
2046
2014
2008
2005
1978
1978
2026
2051
2049
2068
2044
2073
2048
2055
2047
2052
2083
2096
2091
2143
2176
2220
2248
2269
2256
2227
2219
2153
2092
2042
1988
1924
1881
1888
1881
1888
1888
1878
1861
1881
1904
1919
1947
1957
2016
2085
2098
2145
2159
2177
2155
2182
2149
2109
2062
1997
2168
1935
1895
1868
1855
1888
1890
1887
1916
1911
1938
1914
1875
1880
1831
1803
1783
1750
1758
1749
1797
1768
1756
1800
1794
1799
1812
1809
1826
1829
1816
1831
1819
1830
1859
1867
1918
1959
1995
2058
2093
2140
2175
2199
2208
2194
2169
2120
2043
1990
1947
1927
1953
1983
2022
2063
2162
2140
2175
2200
2192
2214
2211
2219
2213
2228
2221
2240
2238
2217
2208
2163
2169
2098
2077
2022
2007
1964
1956
1947
1960
1980
2062
2013
2036
2031
2032
2016
1992
1948
1936
1911
1917
1932
1999
2021
2065
2100
2149
2114
2108
2100
2104
2112
2096
2089
2084
2068
2083
2120
2126
2132
2114
2094
2063
2021
1990
1989
1984
1983
1999
2016
1986
2021
2029
2146
2071
2079
2087
2069
2099
2063
2097
2044
2035
2023
2044
2011
2008
1993
1991
1985
1985
1974
1973
1983
1992
2006
2026
2051
2050
2057
2057
2054
2063
2040
2011
2024
2004
1980
1936
1913
1880
1893
1889
1910
1959
2023
2063
2094
2128
2145
2126
2111
2077
2067
2043
2024
2002
1991
1987
1991
1988
2022
2052
2060
2058
2089
2091
2088
2072
2055
2037
2012
2016
2019
2042
2039
2058
2061
2066
2066
2063
2066
2058
2032
1994
1979
1984
1983
1983
1977
1979
1977
1975
1985
1966
1970
1927
1928
1938
1949
1995
2052
2110
2155
2174
2170
2155
2155
2096
2057
2044
2002
1965
1921
1883
1868
1874
1879
1899
1935
1963
1982
2008
2044
2047
2074
2074
2097
2106
2104
2133
2122
2127
2097
2083
2044
2018
2020
1975
1955
1934
1911
1922
1922
1944
1980
2008
2035
2081
2113
2169
2167
2173
2185
2165
2155
2147
2149
2159
2147
2131
2091
2051
2018
1977
1987
1938
1882
1856
1831
1850
1856
1899
1943
1966
2008
1984
2000
1967
1992
1998
2027
2034
2047
2051
2040
2037
2025
2008
1995
1988
1986
1988
2001
2021
2024
2024
2005
1993
1992
2003
2008
2029
2050
2086
2130
2167
2217
2251
2282
2243
2285
2287
2270
2282
2206
2158
2120
2084
2056
2016
1955
1918
1875
1849
1821
1807
1783
1787
1835
1895
1941
1989
2019
2015
1987
1965
1935
1910
1922
1901
1908
1915
1896
1883
1882
1872
1859
1875
1900
1890
1902
1922
1933
1970
2023
2036
2042
2072
2090
2120
2144
2154
2185
2211
2256
2264
2266
2252
2230
2202
2148
2128
2092
2071
2023
2027
2026
2025
2064
2017
2019
2009
2016
2033
2045
2065
2068
2052
2003
1943
1923
1920
1908
1932
1951
1980
2012
2015
2033
2047
2045
2050
2067
2046
2014
2086
2031
2048
2022
2006
1983
1960
1942
1938
1943
1927
1950
1968
2035
2040
2217
2352
2453
2551
2649
2729
2812
2898
2945
3000
3095
3117
3157
3124
3082
2995
2883
2763
2572
2347
2098
1809
1537
1276
1060
818
665
535
429
359
385
432
520
618
730
829
903
1029
1162
1251
1379
1513
1655
1783
1941
2026
2096
2176
2241
2315
2365
2410
2440
2443
2419
2419
2384
2381
2406
2439
2490
2525
2543
2534
2508
2476
2450
2368
2298
2279
2205
2172
2148
2135
2291
2140
2174
2139
2175
2176
2090
2073
2031
1980
1978
1962
1959
1943
1925
1937
1947
1970
1993
2027
2010
1985
1988
1972
1950
1962
1978
1991
2019
2056
2075
2116
2124
2171
2179
2206
2178
2161
2134
2097
2065
2018
2033
2036
2029
2048
2034
2002
1971
1969
1943
1940
1922
1890
1903
2063
1945
1992
2058
2059
2073
2113
2142
2135
2147
2168
2172
2170
2130
2110
2100
2084
2066
2081
2071
2103
2107
2115
2076
2061
2059
2057
2056
2015
1992
1978
1993
2007
2052
2107
2127
2148
2160
2173
2173
2152
2116
2088
2056
2023
2032
2023
2011
2011
2002
1975
1961
1927
1907
1877
1842
1832
1819
1826
1815
1830
1843
1863
1902
1898
1940
1970
1986
1997
2028
2017
1989
1984
2062
1943
1927
1910
1875
1864
1851
1836
1859
1812
1816
1844
1827
1847
1858
1870
1898
1963
1952
1990
1996
2026
2050
2056
2040
2004
1954
1921
1882
1854
1822
1863
1913
1925
1991
1997
2050
2086
2101
2118
2144
2171
2187
2180
2183
2202
2212
2226
2200
2190
2191
2177
2150
2181
2161
2160
2170
2127
2114
2091
2087
2077
2069
2081
2065
2049
2049
2044
2008
1978
1959
1966
1981
1968
1964
1972
2024
2032
2047
2047
2047
2048
2037
2039
2026
2005
1973
1982
1965
1976
1994
2044
2106
2108
2143
2178
2182
2169
2152
2115
2080
2078
2049
2032
2076
2044
2060
2076
2055
2072
2073
2056
2044
2032
2020
2022
2020
2032
2035
2032
2041
2056
2078
2103
2146
2127
2112
2093
2035
1977
1929
1942
1897
1876
1890
1912
1930
1928
1926
1909
1903
1889
1916
1908
1929
1949
1971
2020
2045
2064
2149
2126
2174
2181
2194
2188
2180
2156
2141
2114
2098
2070
2061
2036
2056
2010
2011
1991
1971
1973
1964
1982
1992
1991
1988
2017
2043
2035
2084
2099
2113
2096
2057
2038
1983
2000
1964
1977
1923
1915
1938
1947
1966
1975
1977
1985
2006
2063
2072
2098
2119
2127
2091
2048
1999
1991
1998
2018
2023
2041
2043
2051
2035
2036
1995
2001
1999
1987
1975
1975
1947
1964
1968
1998
2019
2050
2074
2164
2100
2092
2071
2039
1979
1962
1921
1918
1942
1981
2029
2056
2074
2080
2076
2099
2096
2092
2066
2024
2002
2011
2027
2048
2088
2100
2110
2145
2100
2072
2039
2033
2039
2031
2061
2031
2046
2002
1970
1970
1934
1894
1872
1869
1871
1853
1857
1867
1891
1898
1965
1996
2054
2111
2155
2184
2215
2240
2265
2237
2189
2155
2111
2059
2048
2010
1971
1966
1951
1967
1975
1968
1955
1957
1919
1925
1858
1815
1800
1828
1872
1948
2010
2049
2088
2149
2187
2238
2266
2294
2258
2237
2206
2186
2173
2162
2152
2141
2123
2108
2081
2050
2050
2042
2067
2064
2065
2034
2006
1982
1945
1932
1913
1909
1923
1926
1928
1954
1946
1944
1961
1984
1991
2017
2021
2040
2063
2066
2030
1990
1974
1943
1892
1869
1875
1867
1877
1901
1960
1951
1970
1962
1978
1954
1962
1938
1921
1918
1920
1935
1952
1950
1959
1993
1984
2002
2045
2055
2116
2156
2164
2186
2211
2240
2265
2281
2324
2296
2295
2289
2276
2255
2234
2270
2177
2111
1999
1956
1867
1799
1774
1748
1745
1759
1836
1850
1920
1954
1992
1991
1989
1987
1966
1965
1975
1958
2000
1967
1990
2010
2032
2061
2053
2079
2094
2101
2096
2055
2027
1982
1967
1953
1966
1971
1959
1991
1995
1993
2006
2049
2086
2142
2237
2319
2405
2487
2597
2700
2827
2930
3015
3150
3164
3232
3289
3294
3299
3229
3113
2930
2734
2520
2271
1999
1695
1403
1096
822
595
409
281
197
162
178
250
381
520
677
811
957
1070
1181
1279
1380
1535
1615
1724
1819
1934
2035
2125
2215
2312
2394
2450
2491
2544
2516
2515
2516
2503
2514
2511
2520
2540
2541
2511
2488
2415
2402
2309
2266
2197
2155
2109
2061
2055
2030
2057
2075
2040
2023
2023
2022
2040
2055
2071
2100
2114
2125
2133
2148
2160
2161
2125
2148
2119
2089
2089
2101
2051
2038
2017
1995
1991
1980
1962
1981
2007
2014
2033
2041
2048
2021
2003
1995
1972
1976
1992
2010
2042
2043
2064
2057
2032
2043
2000
2035
1999
2000
2002
2030
2047
2031
2026
2042
2019
2045
2054
2096
2137
2166
2171
2139
2124
2105
2071
2082
2031
2017
2009
2006
2007
2027
2058
2063
2092
2106
2119
2126
2064
2063
2047
2035
2030
2049
2047
2069
2104
2132
2143
2149
2152
2138
2140
2124
2122
2084
2063
2042
2026
2008
2032
1979
1974
1989
1979
1965
1963
1959
1919
1912
1912
1894
1858
1842
1816
1828
1842
1865
1879
1902
1890
1852
1826
1750
1755
1783
1713
1735
1759
1783
1836
1861
1888
1907
1922
1923
1972
1945
1931
1931
1937
1867
1864
1859
1872
1881
1893
1903
1946
2011
1967
2026
2024
2077
2129
2145
2151
2191
2209
2217
2222
2190
2183
2182
2185
2194
2169
2258
2183
2161
2128
2091
2050
1995
1975
1967
1955
1969
1958
1959
1995
2014
2013
2016
2027
2061
2023
2066
2069
2095
2095
2113
2136
2146
2162
2163
2159
2157
2122
2115
2111
2086
2104
2107
2103
2145
2161
2167
2142
2097
2030
1993
1983
1971
1966
1963
1996
2019
2034
2143
2081
2085
2064
2023
2008
1979
1939
1931
1942
1950
1967
1994
2011
2021
2020
2024
2022
2032
2006
1999
1978
1934
1942
1937
1936
1928
1955
1988
2052
2098
2110
2118
2110
2103
2087
2069
2055
2055
2060
2081
2099
2134
2160
2131
2123
2107
2129
2108
2058
2046
2013
2000
1998
1958
1950
1947
1942
1951
1971
1954
1969
1965
1970
1991
2011
2032
2064
2080
2102
2106
2106
2130
2099
2091
2044
2031
1995
1992
1966
1984
1919
1954
1935
1959
1989
2020
2048
2086
2107
2083
2102
2060
2046
2027
2007
2013
1974
1958
1945
1980
1968
1960
1949
1942
1935
1942
1952
1961
1940
1936
1931
1939
1950
1965
2000
2047
2096
2138
2153
2149
2128
2136
2108
2104
2109
2150
2143
2127
2110
2070
2041
2013
1975
1967
1959
1944
1965
1969
1970
1983
2008
2035
2071
2075
2094
2155
2111
2106
2089
2047
2015
1978
1969
1950
1943
1931
1935
1908
1917
1894
1895
1896
1918
1940
1983
2022
2073
2120
2138
2144
2148
2138
2102
2142
2088
2070
2046
2006
1968
1954
1943
1942
1926
1926
1936
1951
1961
1980
2017
2039
2065
2047
2065
2064
2071
2095
2099
2087
2117
2108
2129
2122
2135
2150
2153
2096
2078
2054
2011
2000
1991
1976
1951
1942
1962
1990
2001
2012
2048
2047
2060
2088
2078
2047
2031
1998
1993
1979
1959
1927
1923
1930
1953
1985
2049
2053
2083
2079
2080
2063
2074
2075
2039
2051
2039
2025
2026
2011
2013
2008
2020
2015
2003
2030
2036
2048
2091
2128
2162
2184
2179
2176
2128
2100
2048
2012
1975
1954
1916
1907
1920
1979
2045
2078
2101
2107
2137
2128
2112
2270
2122
2119
2162
2164
2187
2192
2158
2139
2112
2099
2085
2063
2031
2008
1984
1952
1967
1972
1996
1979
1947
1982
1927
1890
1854
1814
1809
1783
1755
1784
1811
1795
1831
1853
1888
1967
1942
1991
2003
2017
2016
2034
2041
2032
2016
2025
1999
1967
1953
1943
1955
1992
2020
2035
2065
2106
2137
2135
2143
2147
2160
2131
2124
2121
2129
2115
2111
2110
2102
2035
1994
1951
1926
1903
1882
1922
1940
1954
1985
2008
2043
2044
2076
2102
2131
2145
2162
2157
2103
2074
2056
2034
2036
2047
2063
2059
2050
2028
2025
2042
2014
2087
1990
1967
1945
1907
1897
1904
1924
1950
1937
1954
1970
1984
2010
2057
2106
2170
2243
2343
2456
2544
2637
2704
2776
2841
2904
2999
3073
3103
3149
3154
3127
3056
2958
2822
2651
2428
2199
1912
1649
1379
1120
894
682
526
428
351
319
343
423
450
396
664
817
935
1084
1237
1370
1502
1634
1793
1860
2002
2102
2185
2281
2340
2385
2434
2445
2445
2431
2432
2423
2407
2409
2363
2372
2336
2352
2316
2313
2337
2384
2397
2434
2480
2396
2361
2335
2279
2220
2145
2104
2051
2010
1997
1971
1952
1946
1939
1995
2003
2080
2091
2121
2103
2088
2130
2054
2062
2045
2046
2027
1973
1983
1996
1964
1975
1958
1965
1949
1955
1958
1958
1981
2007
2031
2051
2047
2034
2020
2014
2000
1982
1968
1970
1974
1968
1988
2035
2023
2055
2232
2120
2146
2155
2165
2151
2162
2178
2180
2171
2167
2158
2139
2123
2092
2040
1978
1923
1894
1881
1912
1936
2009
2066
2144
2199
2211
2251
2256
2251
2221
2183
2131
2122
2083
2045
2027
2034
2045
2058
2110
2130
2176
2148
2182
2178
2161
2135
2109
2065
2050
2013
1996
1952
1930
1889
1872
1864
1864
1861
1868
1865
1865
1850
1849
1852
1847
1882
1895
1917
1928
1928
1927
1907
1930
1872
1862
1835
1832
1843
1859
1854
1851
1838
1826
1821
1831
1846
1957
1856
1863
1836
1809
1807
1812
1811
1816
1832
1846
1865
1872
1897
1918
1961
2003
2032
2015
2023
2035
2043
2046
2052
2091
2099
2130
2166
2185
2219
2280
2287
2320
2285
2262
2206
2167
2133
2120
2093
2085
2078
2078
2076
2047
2046
1994
1989
1985
1962
1969
2017
2041
2064
2106
2144
2156
2170
2168
2180
2120
2098
2102
2083
2072
2088
2088
2091
2089
2096
2095
2107
2108
2104
2105
2048
1992
1942
1892
1879
1873
1892
1901
1928
1959
1970
2008
2044
2050
2058
2055
2078
2080
2071
2068
2081
2075
2083
2091
2104
2098
2113
2104
2087
2047
2015
1995
1963
1947
1960
1958
1990
2007
2033
2069
2085
2091
2151
2078
2074
2063
2063
2035
2037
2043
2063
2065
2087
2080
2095
2051
2011
1983
1959
1949
1928
1907
1901
1918
1911
1935
1968
2015
2022
2023
2046
2046
2084
2082
2094
2126
2128
2134
2119
2123
2132
2131
2151
2142
2120
2102
2058
2015
1966
1945
1927
1908
1906
1916
1963
1959
1983
1982
1986
1988
2004
2018
2037
2002
2024
2016
2003
2000
1989
2007
2023
2052
2053
2048
2018
2010
1995
1984
1979
1978
1977
1988
2002
2013
2036
2055
2077
2084
2096
2104
2110
2129
2168
2122
2079
2035
1995
1960
1952
1924
1930
1938
1942
1959
1951
1967
1970
1970
1973
1994
2029
2065
2096
2125
2145
2156
2167
2171
2125
2096
2065
2055
2039
2023
2015
2011
1975
1957
1938
