2516
2611
2632
2466
2130
1266
1104
1002
1100
1471
1858
2284
2660
2883
3177
3051
2887
2579
2316
1928
1590
1410
1327
1466
1804
2123
2467
2728
2807
2875
2724
2436
2088
1729
1362
1089
935
973
1223
1581
1971
2280
2539
2640
2633
2452
2127
1785
1449
1167
1000
970
1183
1563
1967
2355
2639
2819
2899
2792
2471
2164
1775
1407
1162
1018
1083
1552
1752
2146
2467
2728
2876
2915
2777
2504
2215
1887
1591
1436
1372
1572
1907
2243
2528
2768
2867
2911
2802
2507
2191
1843
1481
1228
1094
1121
1366
1702
2032
2322
2513
2596
2600
2411
2123
1950
1548
1271
1216
1091
1238
1592
1943
2271
2551
2730
2807
2679
2432
2152
1839
1530
1310
1185
1251
1561
1871
2250
2575
2755
2875
2868
2688
2366
2074
1736
1420
1274
1217
1360
1696
2021
2435
2640
2768
2805
2709
2421
2113
1811
1472
1266
1153
1190
1484
1792
2156
2433
2654
2728
2705
2537
2244
1931
1606
1344
1201
1208
1231
1548
1855
2174
2375
2543
2625
2519
2282
2018
1704
1439
1407
1167
1187
1631
1857
2205
2520
2757
2861
2913
2719
2416
2132
1794
1494
1355
1280
1429
1773
2122
2452
2705
2806
2871
2777
2496
2201
1886
1594
1341
1226
1242
1516
1806
2132
2424
2610
2694
2699
2572
2135
1818
1494
1174
1010
930
1061
1362
1661
2019
2299
2415
2541
2510
2215
1924
1664
1316
1120
1038
1081
1356
1755
2069
2417
2676
2796
2811
2638
2338
2006
1675
1400
1303
1245
1441
1816
2173
2560
2847
3011
3068
2959
2683
2344
1992
1651
1402
1280
1300
1542
1898
2207
2535
2765
2840
2855
2629
2317
2198
1682
1392
1178
1140
1214
1554
1912
2262
2544
2716
2781
2725
2455
2136
1813
1498
1291
1315
1288
1619
2004
2382
2743
2962
3096
3091
2855
2525
2174
1818
1469
1330
1253
1351
1657
2000
2304
2559
2697
2731
2627
2317
2050
1624
1256
1002
899
866
1107
1411
1747
2058
2292
2443
2479
2357
2058
1803
1501
1282
1207
1166
1361
1795
2195
2585
2922
3100
3205
3095
2819
2488
2180
1716
1447
1287
1261
1514
1812
2132
2423
2648
2713
2707
2502
2206
1850
1514
1205
1050
979
1168
1450
1810
2165
2445
2657
2739
2703
2434
2194
1857
1568
1329
1223
1225
1479
1810
2163
2523
2698
2820
2896
2706
2342
1995
1646
1368
1176
1117
1272
1608
1943
2316
2612
2750
2836
2753
2459
2174
1810
1465
1244
1127
1142
1354
1773
2168
2482
2739
2863
2920
2776
2479
2200
1888
1551
1365
1281
1369
1682
1974
2319
2598
2739
2802
2695
2411
2144
1763
1405
1196
1052
1055
1312
1669
2045
2376
2616
2737
2786
2609
2285
2007
1631
1360
1215
1151
1278
1628
2001
2333
2638
2795
2884
2796
2548
2297
1922
1591
1358
1241
1232
1506
1811
2149
2457
2676
2783
2806
2632
2347
2024
1696
1399
1216
1126
1271
1580
1898
2268
2540
2739
2760
2677
2405
2046
1714
1387
1104
1038
1073
1327
1720
2095
2458
2719
2849
2879
2735
2409
2104
1747
1478
1305
1235
1417
1867
2029
2380
2682
2824
2908
2835
2570
2255
1924
1574
1313
1178
1154
1359
1678
2027
2336
2560
2687
2720
2568
2246
1948
1616
1318
1155
1114
1244
1635
1955
2350
2624
2827
2873
2807
2497
2186
1846
1528
1265
1167
1175
1440
1799
2153
2499
2754
2906
2924
2791
2450
2144
1812
1512
1345
1250
1355
1654
1950
2307
2562
2728
2773
2738
2438
2099
1736
1390
1119
1000
988
1246
1583
1970
2316
2559
2735
2755
2611
2313
1974
1637
1358
1201
1145
1299
1669
1999
2391
2680
2836
2902
2842
2594
2303
1989
1643
1396
1310
1199
1422
1726
2055
2368
2582
2722
2743
2592
2316
2083
1701
1403
1225
1117
1234
1577
1879
2248
2522
2723
2777
2751
2492
2169
1825
1473
1214
1128
1118
1339
1696
2038
2392
2622
2766
2815
2631
2348
2129
1993
1876
1845
1803
1850
1952
2029
2160
2328
2250
2265
2246
2177
2091
1991
1919
1823
1823
1759
1818
1920
1991
2092
2135
2158
2163
2151
2047
1938
1822
1107
145
0
0
0
0
0
0
82
303
583
884
1215
1512
1817
2120
2404
2746
2818
2995
3288
3239
3379
3410
3439
3453
3411
3332
3243
3084
2936
2773
2634
2471
2295
2168
2050
1927
1834
1758
1711
1710
1666
1664
1685
1721
1727
1760
1789
1841
1854
1816
1755
1615
1461
1361
1372
1376
1474
1538
1563
1554
1520
1413
1200
950
622
469
8
0
0
19
0
0
0
0
0
169
485
894
1378
1758
2171
2528
2756
2972
3151
3161
3091
2969
2737
2504
2240
1951
1658
1366
1103
844
584
361
159
5
0
0
0
0
9
0
8
0
0
0
0
0
120
274
433
626
772
959
1096
1231
1421
1533
1674
1779
1904
2058
2123
2249
2371
2472
2609
2659
2711
2734
2745
2775
2814
2896
2921
2951
2971
2978
2974
3014
2950
2956
2983
3072
3129
3179
3242
3244
3287
3318
3284
3303
3502
3331
3317
3320
3303
3244
3201
3168
3091
3058
3108
2997
2916
2903
2891
2886
2854
2882
2873
2879
2872
2846
2864
2846
2801
2774
2758
2752
2603
2579
2514
2451
2411
2356
2294
2300
2346
2382
2459
2552
2614
2689
2698
2736
2888
2822
2840
2803
2772
2752
2680
2673
2639
2647
2736
2699
2696
2680
2667
2670
2688
2741
2835
2898
2992
3094
3179
3275
3410
3496
3599
3656
3686
3648
3601
3501
3391
3285
3160
2973
2820
2593
2357
2068
1796
1470
1200
933
680
494
362
308
315
367
439
530
604
700
850
1004
1168
1335
1454
1547
1628
1686
1735
1811
1840
1825
1808
1741
1664
1569
1514
1445
1336
1238
1168
1134
1145
1154
1222
1264
1344
1425
1473
1507
1567
1587
1645
1689
1723
1752
1938
1852
1950
2068
2189
2327
2371
2423
2483
2516
2609
2745
2908
3037
3247
3380
3498
3615
3692
3743
3815
3894
3936
3921
3915
3938
3889
3904
3819
3787
3719
3607
3487
3347
3195
3007
2847
2701
2556
2419
2283
2223
2199
2032
1926
1798
1687
1607
1507
1436
1336
1220
1119
1050
994
903
870
829
858
829
868
880
905
920
945
1002
1007
1012
1008
1001
1025
1024
1062
1143
1232
1311
1465
1488
1600
1667
1764
2017
1929
1976
2034
2032
2056
2059
2083
2108
2194
2195
2248
2228
2236
2251
2323
2336
2352
2361
2406
2280
2204
2123
2063
2064
2035
2038
1978
1943
1877
1840
1784
1721
1669
1783
1631
1624
1705
1719
1781
1795
1807
1839
1803
1795
1779
1754
1708
1684
1686
1695
1712
1695
1733
1727
1773
1792
1746
1748
1834
1800
1809
1819
1820
1858
1915
1946
1917
1968
1988
2064
2106
2169
2243
2244
2238
2225
2234
2231
2179
2147
2123
2112
2052
2038
2026
1977
1951
1924
1902
1907
1913
1907
1934
1955
1944
1990
1977
1976
1964
1895
1877
1909
1794
1779
1706
1661
1607
1590
1625
1675
1704
1725
1723
1734
1720
1733
1709
1750
1804
1788
1810
1831
1869
1898
1912
1921
1951
1975
2028
2065
2107
2137
2199
2293
2344
2386
2419
2439
2425
2408
2362
2311
2218
2141
2062
2063
2016
1988
1989
2039
2046
2037
2030
1995
1993
1956
1974
1936
1924
1912
1889
1908
1896
1899
1897
1931
1999
2114
2167
2314
2304
2302
2308
2295
2240
2232
2189
2143
2182
2055
2001
1944
1901
1860
1828
1847
1867
1936
1984
2054
2012
1998
1967
1952
1957
1960
1959
1934
1889
1828
1798
1752
1763
1740
1736
1726
1799
1799
1780
1799
1827
1792
1798
1812
1833
1879
2000
2014
2120
2143
2214
2209
2224
2219
2216
2278
2243
2311
2270
2282
2279
2337
2328
2346
2338
2312
2411
2259
2229
2231
2257
2246
2248
2207
2226
2176
2164
2187
2153
2117
2194
2088
2105
2091
2100
2101
2095
2082
2054
1996
1950
1899
1862
1838
1854
1861
1902
1957
2032
2069
2111
2193
2251
2259
2288
2234
2205
2152
2061
2128
2008
1970
1933
1930
1919
1940
1962
1982
1974
1968
1997
2029
2049
2037
2048
2128
2287
2124
2169
2112
2072
1990
1949
1909
1889
1868
1888
1979
1947
2007
1991
2022
2048
2077
2088
2134
2155
2160
2170
2107
2084
2080
2066
2050
2068
2072
2026
2081
1999
2008
2039
2042
2055
2084
2103
2122
2140
2153
2133
2129
2185
2137
2130
2148
2115
2110
2145
2080
2057
2054
2015
1978
1950
1984
2024
1947
1959
1972
1988
2012
2006
2068
2008
1999
2015
2047
2022
2015
2030
2039
2052
2012
1968
1928
1872
1824
1761
1680
1649
1669
1670
1694
1757
1795
1825
1898
1952
1975
2044
2048
2057
2050
2114
2153
2147
2184
2206
2260
2265
2205
2204
2176
2160
2140
2096
2054
2031
1968
1934
1903
1850
1814
1857
1790
1782
1767
1697
1754
1823
1847
1916
1930
1947
1980
1984
2010
2032
2027
2018
2088
2040
2048
2065
2096
2089
2146
2085
2047
2000
1963
1937
1925
1928
1937
1912
1958
1948
1939
1968
1907
1932
1909
1924
1989
2058
2150
2259
2377
2507
2628
2889
2839
2967
3023
3107
3187
3175
3236
3231
3238
3227
3212
3108
3009
2837
2645
2383
2101
1809
1523
1253
961
720
520
376
254
194
199
245
288
363
471
588
717
809
902
1037
1175
1359
1546
1702
1875
2015
2256
2319
2410
2506
2555
2601
2607
2607
2582
2557
2527
2498
2407
2359
2320
2276
2241
2196
2171
2169
2151
2159
2226
2209
2190
2171
2163
2133
2118
2105
2077
2071
2044
2057
2068
2122
2109
2112
2124
2067
2043
2068
2040
1979
1949
1984
1952
1915
1920
1928
1903
1910
1888
1882
1871
1925
1909
1994
1997
2070
2080
2136
2128
2096
2070
2023
1997
2007
1975
1982
1988
2017
1945
1931
1894
1918
1907
1877
1904
1897
1972
1931
1944
1980
1999
2039
2072
2070
2074
2086
2133
2128
2132
2130
2112
2067
2020
1966
1905
1911
1915
1919
1940
1966
1984
2024
2033
2078
2080
2101
2124
2151
2136
2159
2158
2173
2173
2140
2146
2148
2112
2063
2093
2085
2057
2032
1998
1984
1916
1932
1920
1868
1830
1800
1808
1804
1802
1821
1838
1855
1877
1915
1996
1993
2008
2063
2016
2036
2027
2007
2012
1982
1966
1940
1893
1880
1839
1803
1799
1754
1728
1715
1707
1709
1688
1681
1679
1689
1702
1791
1713
1736
1746
1791
1843
1872
1879
1921
1971
2061
2081
2183
2230
2245
2267
2275
2279
2288
2272
2255
2189
2199
2094
2065
2048
2048
2007
1981
1926
1892
1888
1874
1922
1910
1937
1980
2004
2086
2153
2192
2247
2244
2209
2184
2143
2141
2180
2201
2222
2212
2175
2228
2134
2113
2110
2094
2087
2032
1989
1943
1940
1895
1852
1808
1808
1728
1762
1692
1731
1743
1783
1836
1889
1962
2040
2101
2143
2199
2235
2245
2279
2274
2264
2231
2186
2143
2086
2009
2002
2000
1994
1992
2051
2086
2107
2087
2085
2066
2058
2066
2082
2118
2135
2120
2125
2119
2135
2117
2081
2092
2079
2080
2092
2084
2065
2088
2062
2026
2042
1985
1959
1938
1931
1955
1983
2018
2043
2055
2055
2044
2080
2017
1972
1970
1903
1872
1848
1815
1780
1759
1714
1666
1619
1628
1622
1655
1745
1833
1896
2000
2076
2169
2183
2228
2264
2216
2183
2168
2169
2137
2131
2135
2164
2166
2151
2173
2178
2192
2166
2171
2137
2120
2130
2047
2000
1971
1985
1976
1935
1948
1935
2027
1969
1989
1972
1966
1935
1943
1948
1956
1981
1983
2023
2015
2045
2034
2022
2029
2018
2018
2004
2048
2045
2056
2067
2191
2168
2078
2062
2034
2014
1999
1968
1911
1887
1847
1864
1915
2020
1953
2016
2090
2077
2128
2091
2075
2063
2064
2056
2026
2038
1995
1977
1959
1977
1975
1987
1994
1982
1990
1984
2019
2024
2010
2012
1986
1984
1963
1944
1951
1934
1931
1938
1919
1970
1943
1956
1952
1943
1979
2101
2045
2042
2036
2005
1984
1976
1956
1946
1939
1942
1924
1925
1929
1979
1964
1997
2040
2076
2086
2108
2111
2141
2121
2067
2090
2064
2066
1999
1978
1963
2028
1934
1919
1919
1934
1959
2034
1992
1988
1976
1969
1924
1936
1963
1956
1959
1996
1980
1970
2004
2006
2032
2018
2019
2064
2038
2038
2132
2020
2000
1973
2144
1941
1955
1993
2009
2050
2060
2072
2053
2039
2039
2064
2058
2058
2055
2039
2054
2093
2045
2029
2010
2054
2030
2023
2028
2005
1989
1959
1928
1950
1935
1956
1945
1958
1943
1919
1902
1877
1831
1787
1779
1795
1852
1891
1977
2068
2129
2151
2192
2203
2213
2218
2260
2143
2316
2370
2408
2519
2615
2697
2774
2830
2891
2919
2962
2982
2978
2963
2906
2847
2756
2649
2495
2349
2132
1903
1630
1368
1123
936
728
574
471
448
445
451
522
620
710
819
935
1048
1164
1311
1392
1527
1627
1729
1874
1935
2026
2099
2203
2249
2374
2316
2329
2392
2426
2436
2433
2407
2386
2375
2392
2370
2352
2359
2343
2337
2335
2347
2329
2314
2291
2272
2240
2195
2185
2130
2083
2039
2012
1990
1939
1919
1903
1842
1808
1810
1825
1879
1928
1944
1954
1972
2015
2062
2109
2143
2154
2159
2104
2082
2068
2063
2030
2030
1985
2033
2044
2109
2102
2117
2140
2138
2159
2151
2167
2132
2111
2123
2094
2116
2096
2078
2059
2058
2055
2058
2049
2024
2014
2000
1973
1953
1976
2033
1984
2008
2045
2045
2078
2112
2093
2119
2179
2078
2087
2093
2088
2199
2167
2167
2153
2129
2091
2046
2015
2010
1988
1966
1954
1939
1936
1896
1827
1810
1804
1794
1820
1855
1904
1945
1939
1937
1931
1900
1870
1855
1887
1958
2032
2048
2083
2134
2158
2135
2164
2126
2102
2084
2065
2048
2016
1986
1895
1803
1751
1704
1672
1655
1600
1603
1628
1645
1672
1707
1738
1776
1824
1896
1965
2069
2011
2057
2098
2067
2061
2054
2026
2019
2014
2033
2044
2075
2085
2119
2116
2081
2115
2056
2074
2079
2075
2079
2068
2079
2070
2058
2038
1988
1979
1985
1978
1985
2000
1973
1960
1966
1949
1959
1989
2023
2042
2069
2067
2111
2121
2139
2160
2163
2146
2158
2130
2152
2153
2178
2195
2165
2169
2187
2198
2189
2200
2143
2121
2093
2056
2058
1992
1979
1958
1949
1911
1927
1935
1946
1984
2007
2041
2036
2048
2046
2024
1981
1938
1927
1894
1855
1840
1819
1822
1830
1856
1859
1879
1943
1939
1969
1959
1989
2021
2050
2077
2084
2120
2157
2139
2123
2096
2062
2044
2030
2093
2040
2071
2054
2064
2080
2060
2052
2062
2023
2022
2002
1997
1988
1959
1944
1971
1954
1957
1974
2050
1998
2019
2025
2027
2034
2053
2062
2058
2062
2079
2093
2088
2111
2081
2071
2067
2076
2096
2061
2040
1998
1971
1936
1934
1891
1936
1923
1915
1913
1951
1975
1994
2024
2060
2006
2093
1976
1971
1985
1966
1978
1975
1970
1944
1927
1944
1970
1950
1959
1955
2007
1996
1975
1956
1953
1955
1984
2042
2049
2088
2212
2153
2181
2162
2159
2075
2050
2044
2167
1967
1970
1979
1985
1998
2064
2061
2059
2060
2049
2057
2054
2041
2073
2082
2087
2078
2075
2047
2038
2020
2000
1991
1995
2024
2023
2007
2002
1947
1914
1896
1873
1881
1877
1864
1912
1902
1928
1943
1975
2003
2026
2059
2083
2126
2176
2191
2198
2212
2205
2203
2125
2074
1999
1946
1896
1791
1756
1741
1676
1794
1831
1926
2033
2063
2124
2104
2123
2097
2088
2098
2080
2067
2208
2051
2048
2044
2006
1983
1970
1961
1926
1969
1999
2024
2062
2072
2058
2063
2070
2090
2125
2097
2102
2073
2063
2030
2023
2008
1998
2002
2035
2011
2022
2019
1956
1914
1911
1887
1896
1911
1931
1943
2043
1951
1945
1968
2040
2053
2077
2104
2112
2081
2193
2014
1974
1920
1938
1895
1893
1872
1891
1940
1935
1927
1938
1931
1964
1994
2004
2064
2097
2097
2090
2095
2090
2112
2083
2039
2010
1984
1982
1930
1932
1923
1926
1949
1927
1945
2006
2003
2008
2034
2032
2025
2007
2016
1999
1979
1979
1988
1992
2000
1983
1978
2008
2010
2029
2081
2091
2131
2180
2231
2217
2228
2171
2180
2128
2111
2077
2063
2034
2041
2027
2015
2016
1956
1940
1913
1869
1860
1872
1907
1933
2028
2050
2116
2139
2196
2248
2288
2391
2487
2586
2756
2820
2937
3039
3102
3154
3202
3167
3168
3105
2983
2855
2671
2445
2184
1911
1637
1327
1060
810
534
360
220
157
160
248
291
568
540
626
771
904
1102
1330
1550
1767
1924
2113
2261
2313
2352
2389
2416
2396
2415
2432
2462
2434
2544
2479
2431
2414
2398
2383
2341
2270
2257
2167
2125
2063
2038
2046
2062
2120
2133
2123
2097
2061
2031
2015
1971
1957
1957
1964
2006
2045
2075
2116
2139
2158
2337
2195
2210
2234
2185
2192
2196
2139
2136
2123
2145
2131
2085
2049
2214
2021
1979
2032
1959
1946
1925
1973
1972
1955
2000
2016
2046
2067
2096
2135
2097
2119
2134
2077
2053
2016
1984
1950
1964
1973
1986
2017
2064
2066
2073
2060
2082
2060
2014
2017
1996
2007
2019
2032
2021
2015
2059
2023
2057
2091
2123
2181
2172
2204
2195
2215
2175
2157
2151
2114
2091
2109
2095
2129
2132
2135
2110
2096
2059
2001
1980
1960
1929
1901
1917
1902
1919
1955
1906
1895
1934
1939
1939
1903
1869
1844
1875
1842
1847
1870
1890
1889
1899
1900
1931
1895
1898
1833
1809
1806
1786
1791
1802
1822
1874
1897
1912
1884
1857
1825
1819
1821
1809
1795
1772
1784
1816
1859
1920
1961
1988
2040
2109
2037
2034
2011
2010
2036
2231
2066
2081
2082
2100
2064
2080
2092
2114
2139
2126
2143
2098
2076
2048
1983
1975
1973
1990
1989
2007
1972
1989
1958
1967
2010
2042
2083
2139
2189
2247
2274
2288
2304
2251
2218
2183
2151
2093
2138
2063
2088
2087
2098
2138
2143
2083
2067
2063
2060
2027
2023
2035
2018
1991
1946
1903
1863
1841
1853
1863
1891
1876
1862
1871
1902
1922
2170
1988
2039
2094
2036
2079
2080
2099
2090
2108
2135
2153
2160
2147
2170
2143
2112
2057
2015
2026
2032
2007
2009
2019
2059
2027
2031
2053
2057
2051
2068
2016
2028
1975
1991
2024
2040
2081
2089
2079
2073
2012
1952
1929
1865
1868
1861
1865
1816
1839
1863
1899
1973
1990
2044
2061
2128
2067
2030
1965
1926
1921
1903
1946
1930
1979
2021
2051
2066
2072
2091
2127
2145
2144
2106
2071
2043
2033
2016
2003
1984
1959
1942
1957
1928
1931
1951
2008
2032
2073
2091
2140
2114
2069
2090
2069
2060
2049
2033
2027
2036
2010
1995
1984
1943
1887
1879
1854
1847
1876
1891
1898
1904
1918
1935
1924
1966
1908
1909
1903
1916
1915
1926
1975
1975
2052
2092
2135
2167
2156
2125
2087
2109
2032
1992
1963
1952
1969
2024
1986
2070
2079
2100
2140
2119
2107
2112
2087
2088
2058
2030
2140
2010
2008
2015
2023
2151
2034
2043
2064
2070
2051
2044
2084
2062
2063
2092
2059
2062
2055
2082
2066
2062
2090
1888
1965
1936
1882
1878
1843
1839
1869
1913
1921
1955
1952
1951
1975
2035
2045
2057
2090
2109
2126
2183
2148
2096
2112
2118
2128
2168
2236
2176
2168
2155
2131
2150
2078
2041
2022
1983
1980
1983
1991
2004
2125
1986
1950
1944
1916
1914
1945
1952
1952
1961
1967
2007
2031
2067
2112
2067
2058
2081
2063
2096
2047
2054
2068
2100
2044
2070
2049
2058
2086
2067
2068
2115
2101
2118
2105
2066
2019
2005
1947
1827
1891
1874
1870
1857
1839
1859
1831
1839
1771
1750
1762
1733
1713
1696
1726
1749
1783
1810
1876
1893
2030
1963
2002
2043
2038
1988
2074
2069
2109
2161
2170
2196
2205
2223
2201
2199
2278
2173
2122
2086
2060
2043
2028
2004
1967
1964
1925
1932
1910
1912
1903
1952
1901
1919
1911
1908
1937
1926
1960
2014
2008
2031
2055
2097
2124
2141
2140
2136
2127
2089
2067
2034
2007
1995
1995
2020
1996
2004
1959
1906
1931
1928
1914
1917
1930
1909
1931
1931
2022
2064
2125
2169
2258
2278
2282
2380
2456
2550
2790
2815
2924
3018
3071
3190
3259
3296
3360
3329
3269
3198
3046
2799
2559
2243
1922
1542
1188
880
623
423
278
174
126
138
115
165
235
287
423
527
713
908
1088
1278
1427
1595
1743
1884
1996
2125
2209
2425
2405
2585
2544
2584
2599
2602
2692
2588
2590
2567
2512
2485
2473
2427
2391
2363
2328
2212
2183
2169
2161
2150
2142
2145
2152
2169
2141
2133
2123
2128
2121
2072
2064
2083
2052
2035
2037
2049
2040
2062
2027
2009
1998
1966
1980
2009
2003
2052
2071
2107
2129
2147
2136
2120
2148
2124
2102
2080
2047
2044
1995
2014
2032
2022
2016
2011
2024
2038
2054
2047
2035
2023
2003
1976
1978
1959
1950
1957
1926
1923
1929
1934
1978
1958
2046
2033
2108
2047
2045
2051
2056
2037
2059
2032
2040
2065
2084
2087
2079
2110
2084
2089
2111
2132
2120
2140
2199
2220
2234
2249
2318
2225
2185
2126
2057
2015
1969
1936
1907
1975
1918
2040
1992
2003
2019
2037
2043
2026
1988
1965
1961
1914
1905
1930
1937
1927
1920
1925
1903
1919
1940
1921
1919
1923
1879
1857
1804
1808
1790
1812
1852
1854
1888
1898
1965
1860
1887
1893
1907
1929
1980
1977
2048
2031
2053
2106
2149
2180
2188
2119
2135
2068
2032
2015
2039
2100
2167
2241
2302
2346
2307
2302
2289
2221
2189
2135
2129
2130
2176
2151
2143
2155
2188
2247
2292
2366
2366
2387
2419
2374
2368
2327
2310
2269
2255
2276
2270
2310
2346
2400
2446
2507
2522
2540
2539
2563
2581
2539
2534
2531
2529
2475
2439
2386
2334
2195
2097
1989
1878
1792
1689
1589
1539
1518
1531
1530
1527
1530
1517
1495
1435
1363
1286
1232
1228
1159
1195
1148
1165
1213
1280
1373
1455
1565
1703
1810
1862
1907
1919
1942
1982
1971
1977
1971
1980
1984
1965
1961
1979
1972
1944
1943
1929
1876
1880
1825
1843
1861
1855
1889
1923
1933
1938
1911
1926
1930
1938
1936
1956
1982
2007
2007
2000
2107
1951
2087
1932
1922
1899
1885
2038
1875
1912
1935
1950
2007
1990
2046
2012
2001
2005
2013
2062
2071
2075
2090
2066
2062
2051
2090
2104
2174
2120
2154
2152
2118
2128
2144
2127
2099
2081
2062
2064
2068
2025
2018
2188
2036
2053
2060
2094
2107
2118
2130
2144
2120
2116
2115
2121
2121
2195
2168
2107
2125
2087
2130
2080
2102
2106
2065
2117
2105
2135
2177
2231
2233
2238
2276
2272
2220
2159
2115
2060
2019
2019
2011
2013
2048
2047
2071
2088
2085
2087
2100
2068
2084
2088
2083
2051
2040
2020
1955
1877
1857
1751
1734
1726
1724
1766
1748
1760
1751
1740
1748
1761
1799
1819
1860
1879
1925
1956
1951
1988
1970
1971
1945
1925
1919
1912
1892
1882
1971
1960
1985
2012
2053
2089
2111
2165
2168
2209
2191
2210
2218
2240
2225
2226
2244
2191
2171
2160
2153
2127
2097
2084
1991
1951
1883
1827
1806
1803
1805
1804
1812
1833
1831
1865
1882
1863
1854
1842
1878
1800
1796
1807
1808
1807
1823
1856
1882
1926
2016
2085
2137
2175
2182
2166
2142
2126
2139
2084
2051
2056
2051
2096
2058
2077
2065
2076
2064
2047
2055
2068
2058
2050
2049
2092
2121
2168
2195
2200
2209
2202
2158
2115
2106
2040
2022
2032
2035
2060
2039
2215
2048
2052
2054
2053
2048
1999
1958
1968
1922
1866
1870
1871
1882
1888
1877
1874
1892
1867
1851
1886
1869
1911
1908
1936
1975
1969
2014
2048
2065
2080
2098
2123
2107
2106
2099
2077
2084
2078
2092
2079
2045
2056
2035
2025
2030
2062
2053
2200
2045
2041
1984
1940
1917
1968
1888
1919
1950
1959
2047
2079
2128
2177
2194
2186
2167
2151
2115
2079
2033
1991
1967
1944
1888
1898
1847
1871
1914
1898
1926
1936
1966
1968
2007
2088
2160
2232
2250
2261
2246
2203
2175
2123
2068
2009
1955
1888
1877
1858
1864
1918
1955
1930
1977
2044
2107
2226
2416
2423
2538
2606
2674
2751
2799
2914
2943
3064
3040
3014
3006
2921
2914
2767
2587
2362
2082
1815
1573
1328
1099
904
738
621
463
362
314
268
303
361
464
569
702
847
1028
1188
1373
1536
1690
1800
1935
2062
2141
2221
2346
2399
2481
2538
2556
2588
2544
2543
2543
2559
2576
2580
2619
2587
2555
2530
2554
2441
2359
2343
2289
2235
2232
2156
2167
2133
2146
2095
2074
2055
1980
1959
1984
1937
1962
1869
1873
1858
1846
1858
1844
1870
1903
1970
1980
2028
2097
2143
2177
2243
2316
2303
2340
2343
2354
2288
2239
2171
2120
2069
1967
1952
1826
1819
1798
1768
1820
1842
1855
1877
1904
1945
1993
1999
2031
2070
2107
2092
2135
2184
2209
2249
2271
2297
2311
2235
2191
2159
2142
2131
2104
2082
2072
2086
2053
2040
2057
2017
1994
1992
1972
1958
1967
1986
1968
1965
1973
1990
2041
2073
2052
2034
2005
2005
2008
2006
2014
2022
2007
2039
2023
2085
2100
2119
2117
2115
2092
2048
2024
2023
1980
2034
1952
1960
1877
1846
1818
1847
1829
1813
1817
1856
1867
1879
1879
1901
1876
1878
1864
1838
1811
1845
1800
1797
1788
1748
1710
1695
1649
1643
1682
1683
1676
1670
1739
1728
1747
1788
1848
1870
1916
1966
2016
2006
2104
2042
2096
2100
2082
2119
2080
2070
2060
2036
2026
1998
1985
2029
1998
2040
2062
2091
2143
2157
2222
2228
2240
2247
2205
2215
2244
2283
2218
2197
2207
2168
2143
2146
2087
2048
2032
1985
1971
1944
1936
1923
1915
1927
1948
1972
1995
2035
2074
2144
2152
2176
2169
2175
2184
2145
2113
2063
2012
1955
1948
1934
1939
1950
2026
2045
2065
2075
2123
2103
2126
2066
2072
2036
2041
2063
2099
2148
2191
2189
2214
2224
2151
2080
2020
1984
1927
1881
1822
1799
1813
1856
1906
1923
1982
2015
2035
2084
2082
2115
2105
2124
2145
2127
2193
2191
2219
2206
2187
2161
2068
2027
1970
1903
1814
1779
1703
1707
1734
1852
1888
1944
2000
2045
2097
2108
2153
2179
2164
2155
2150
2154
2154
2187
2158
2143
2136
2055
1999
1967
1926
1899
1883
1855
1841
1896
1821
1860
1866
1871
1904
1932
1966
1992
2004
2048
2040
2039
2055
2080
2148
2140
2138
2094
2053
2013
2004
1944
1956
1958
1942
1930
1917
1960
2000
2011
2077
2093
2144
2195
2206
2226
2237
2247
2245
2277
2224
2211
2206
2129
2085
2044
2010
1954
1955
1935
1894
1843
1808
1791
1751
1737
1743
1789
1832
1849
1926
1987
2027
2065
2047
2064
2060
2070
2096
2137
2186
2200
2253
2202
2177
2138
2127
2118
2118
2111
2113
2042
2008
1919
1847
1815
1738
1713
1713
1711
1742
1735
1760
1797
1878
1907
1993
2065
2138
2176
2198
2240
2261
2274
2303
2293
2306
2302
2301
2293
2281
2257
2249
2183
2121
2075
2035
2014
2024
1997
1967
1986
1988
1964
1950
1944
1894
1888
1848
1837
1809
1818
1834
1871
1924
1959
1998
2021
2047
2027
2031
1994
1974
1989
1988
1980
1990
1991
1992
1988
1970
2004
2042
2076
2126
2130
2174
2224
2197
2198
2194
2200
2095
2150
1999
2112
1938
1920
1919
1931
1957
2007
2016
2038
2062
2064
2026
1995
1985
1983
1996
1986
1990
2008
1955
1979
1945
1870
1856
1828
1818
1846
1830
1856
1889
1896
1909
1918
1954
2012
2027
2057
2056
2062
2061
2071
2081
2125
2135
2183
2155
2150
2184
2142
2123
2105
2032
2007
1924
1843
1859
1863
1859
1904
1913
1959
2006
2019
2083
2047
2049
2035
2037
2052
2043
2017
2020
2064
2077
2030
2042
1981
1973
1891
1844
1800
1779
1675
1742
1690
1785
1871
1968
2026
2084
2143
2187
2207
2234
2231
2199
2303
2137
2097
2064
2029
2017
2028
2084
2128
2225
2320
2432
2542
2650
2761
2840
2896
2920
2920
2959
2985
2976
2918
2839
2729
2535
2313
2064
1750
1497
1231
994
783
635
503
429
434
455
490
583
619
695
810
960
1076
1189
1322
1439
1566
1735
1851
1954
2015
2081
2099
2147
2260
2348
2479
2570
2629
2734
2750
2755
2713
2688
2640
2606
2590
2529
2470
2421
2383
2368
2301
2282
2228
2215
2186
2160
2151
2093
2048
2014
1990
1932
1895
1910
1880
1868
1866
1895
1894
1855
1868
1866
1911
1947
2016
2052
2035
2072
2083
2120
2144
2124
2107
2128
2140
2151
2178
2144
2065
2069
2037
2016
1951
1938
1891
1888
1901
1930
1944
1969
1983
1996
1975
1991
1983
2003
2006
2034
2032
2025
2022
2024
2056
2087
2146
2193
2235
2235
2245
2218
2205
2183
2177
2148
2136
2131
2150
2132
2124
2144
2106
2094
2056
2026
2016
2043
2025
2037
2052
2057
2047
2102
2090
2131
2152
2167
2174
2157
2148
2106
2047
2046
2021
2046
1996
1999
2002
2014
2019
2021
2049
2039
2010
1980
1906
1852
1791
1754
1727
1771
1745
1706
1709
1716
1782
1784
1813
1833
1877
1886
1888
1887
1849
1856
1839
1872
1864
1886
1914
1911
1936
1912
1903
1891
1864
1844
1824
1800
1775
1799
1808
1814
1820
1876
1904
1929
1950
1933
1897
1858
1848
1868
1871
1952
2008
2114
2151
2174
2163
2168
2163
2157
2167
2169
2186
2175
2199
2185
2170
2179
2162
2159
2155
2179
2189
2373
2199
2146
2104
2047
2031
1970
1934
1943
1963
2000
2020
2037
2012
2041
1984
1975
1919
1922
1958
1955
2005
2204
2077
2110
2133
2136
2151
2166
2159
2160
2178
2158
2145
2151
2143
2150
2146
2107
2111
2064
2052
2015
1992
1959
1933
1924
1904
1909
1933
1967
2014
2039
2111
2107
2125
2126
2119
2072
2086
2007
2185
1968
1954
1939
1953
1928
1920
1987
2021
2055
2100
2076
2054
2011
1955
1924
1967
1957
1984
2064
2066
2079
2088
2038
2016
1991
1971
1933
1916
1907
1901
1876
1873
1887
1915
1937
1993
2001
2084
2113
2149
2126
2106
2094
2078
2066
2131
2004
1984
2010
1992
2000
2214
2080
2144
2115
2130
2081
2051
2053
2038
2034
1983
1983
1976
1978
2030
2002
1999
1922
1899
1841
1800
1773
1757
1809
1815
1835
1872
1930
1971
2056
2068
2072
2111
2079
2078
2087
2096
2071
2085
2078
2071
2045
2046
2063
2071
2077
2095
2077
2080
2052
2052
2044
2060
2074
2076
2089
2088
2120
2159
2123
2101
2079
2023
1970
1872
1838
1862
1697
1719
1736
1776
1813
1848
1879
1942
1987
1990
2051
2041
2099
2314
2143
2141
2153
2140
2119
2099
2080
2010
2097
1938
1901
1940
1975
2018
2066
2083
2084
2128
2079
2068
2071
2095
2101
2120
2152
2124
2099
2063
2027
1994
1997
2026
2046
2069
2045
2042
2041
2026
2016
1962
1967
1923
1953
1919
1915
1927
1971
1973
1994
1994
2025
2039
2076
2233
2120
2096
2026
1959
1923
1884
1891
1952
1971
2000
1974
2011
2048
2079
2116
2088
2080
2081
2088
2071
2045
2027
2007
2026
2009
2022
2034
2048
2071
2019
1954
1922
1881
1883
1879
1896
1960
1971
1989
2005
2010
1986
1986
1963
1970
1916
1875
1846
1838
1808
1807
1818
1828
1877
1960
2042
2095
2118
2160
2155
2135
2106
2110
2076
2071
2055
2043
2055
2079
2047
2056
2050
2035
2045
2066
2038
2038
2046
2019
2031
2004
2003
2063
2052
2018
2050
2024
1979
2024
2010
2034
2052
2066
2086
2083
2043
2055
2038
2059
2027
2008
2044
2016
2051
2084
2054
2050
2174
2064
2059
2046
2032
1983
1973
1952
1967
1978
2028
2083
2175
2315
2461
2532
2740
2839
2984
3055
3136
3169
3192
3167
3131
3048
2957
2798
2659
2447
2236
1995
1747
1451
1255
948
755
560
383
270
155
157
187
289
404
551
722
917
1085
1239
1403
1555
1681
1831
1940
2051
2149
2239
2330
2413
2474
2542
2579
2567
2588
2542
2488
2406
2376
2357
2290
2262
2262
2278
2274
2295
2268
2223
2179
2141
2099
2067
2054
2067
2078
2107
2127
2154
2199
2200
2199
2192
2171
2154
2146
2142
2112
2063
2072
2069
2055
2078
2142
2140
2121
2135
2113
2108
2066
2056
2004
2019
1993
1952
1875
1835
1782
1832
1809
1851
1906
1972
2015
2049
2066
2135
2055
2077
2065
2052
2085
2143
2206
2180
2167
2164
2145
2100
2062
2022
1959
2071
1933
1935
1950
1935
1880
1886
1855
1891
1912
1935
1959
2015
2064
2147
2218
2274
2329
2320
2267
2204
2139
2099
2065
2025
1983
1975
2005
1966
1993
1987
1995
2027
2127
2059
2083
2080
2081
2041
2024
2001
2002
1959
1992
2005
2035
2071
2088
2064
2058
2047
1996
1944
1924
1895
1906
1908
1890
1894
1877
1867
1846
1857
1868
1866
1902
1883
1902
1927
1886
1888
1863
1823
1749
1677
1664
1620
1679
1736
1792
1835
1902
1892
1895
1895
1912
1934
1970
1984
1973
1998
1995
1975
1968
1964
1949
1975
1938
1936
1992
1970
2000
2020
1993
2045
2048
2074
2119
2165
2308
2247
2226
2220
2215
2211
2206
2195
2179
2192
2161
2160
2164
2140
2167
2152
2129
2130
2128
2117
2117
2070
2021
1995
1963
1944
1969
1975
1997
1994
2040
2022
2023
2008
1972
1969
1919
1899
1889
1922
1935
1967
2024
2074
2124
2160
2202
2160
2135
2094
2056
2037
2052
2045
2014
2028
2016
2020
2007
2016
2021
2010
1988
2013
2024
2044
2065
2061
2034
2006
2018
2006
2042
2066
2050
2091
2082
2100
2099
2134
2144
2144
2143
2165
2094
2089
2071
2039
2014
1982
1962
1956
1915
1880
1845
1802
1813
1792
1799
1807
1856
1888
1897
1938
1975
2026
2103
2087
2125
2218
2142
2164
2172
2139
2152
2176
2194
2190
2170
2153
2127
2091
2059
2038
2025
1992
1959
1970
1993
2024
2035
2003
2025
1988
1953
1896
1863
1851
1862
1875
1901
1967
2008
2005
2039
2055
2079
2109
2111
2109
2068
2008
2016
1958
1840
1940
1964
1977
1989
2038
1986
1979
1984
2003
2023
2035
2014
2105
2029
2008
2024
2038
2071
2099
2160
2132
2111
2135
2091
2068
2050
2006
1951
1953
1936
1902
1913
1920
1952
2008
2011
2034
2050
2037
2050
2053
2108
2073
2062
2062
2046
2048
2019
1974
1992
1905
1894
1898
1887
1895
1899
1936
1923
1981
1986
2013
2095
2142
2149
2129
2099
2086
2047
2036
2013
1998
2017
1967
1950
1940
1930
1981
1958
1962
1989
2070
2015
2008
1980
1969
1967
1975
1986
2027
2031
2043
2051
2070
2064
2050
2071
2054
2037
1993
1984
1960
1941
1948
1983
1957
2019
2013
2059
2086
2131
2127
2141
2181
2177
2151
2144
2090
2040
2004
1962
1914
1911
1954
1933
1986
2015
2068
2111
2128
2112
2139
2128
2096
2109
2050
2046
2031
2051
2102
2147
2162
2179
2273
2124
2027
1941
1862
1811
1780
1768
1755
1767
1750
1782
1792
1816
1876
1944
1983
1994
2071
1952
1948
1999
2039
2082
2123
2123
2115
2114
2075
2053
2015
2010
1952
1946
1914
1917
1938
1922
1948
2008
2019
2048
2044
2056
2096
2108
2156
2160
2171
2199
2181
2192
2172
2095
2038
1980
1943
1908
1863
1862
1818
1786
1786
1801
1838
1916
1937
1953
1979
2200
2131
2109
2094
2151
2195
2231
2265
2240
2240
2230
2207
2176
2095
2048
2037
1944
1914
1872
1867
1896
1926
1927
1950
1969
1936
1927
1940
1974
2026
2067
2061
2087
2117
2192
2214
2266
2356
2397
2447
2491
2546
2607
2716
2712
2794
2765
2779
2806
2805
2817
2829
3004
2767
2685
2579
2443
2223
1991
1712
1424
1160
945
769
628
525
450
418
493
516
637
732
831
930
1031
1125
1203
1311
1436
1593
1726
1888
2028
2127
2216
2276
2307
2312
2295
2323
2339
2398
2405
2396
2432
2431
2376
2362
2359
2339
2307
2334
2335
2332
2362
2332
2371
2342
2318
2299
2293
2275
2250
2254
2216
2227
2195
2185
2139
2115
2077
2075
2058
2061
2099
2096
2108
2098
2055
2010
1968
1913
1843
1777
1744
1748
1792
1824
1888
1955
1983
2034
2073
2063
2096
2074
2112
2071
2055
2028
1985
1943
1958
1969
1984
2009
2093
2049
2049
2013
1995
1999
1924
1951
2015
2009
2036
2068
2073
2123
2068
2061
2058
2108
2123
2160
2185
2197
2215
2222
2177
2172
2114
2086
2019
1992
1964
1952
1993
2013
2033
2025
2047
2051
2049
2072
2090
2113
2243
2166
2170
2191
2176
2145
2125
2065
2015
1990
1925
1898
1883
1887
1871
1903
1932
1945
1947
1960
1943
1952
1959
1936
1920
1858
1781
1736
1753
1825
1862
1915
1943
1964
1955
1858
1816
1772
1738
1763
1774
1789
1802
1814
1836
1882
1875
1876
1905
1887
1901
1897
1906
1871
1880
1883
1951
1951
1943
1967
1963
1933
1929
1878
1907
1824
1820
1807
1867
1916
2024
2079
2148
2151
2161
2178
2338
2198
2217
2171
2173
2135
2105
2096
2101
2080
2094
2099
2138
2125
2152
2186
2206
2226
2258
2256
2248
2262
2248
2185
2162
2116
2080
2059
2020
1983
1960
1936
1898
1927
1872
1877
1864
1860
2017
1923
1968
1975
1986
2044
2046
2083
2176
2149
2134
2168
2194
2179
2210
2153
2119
2088
2070
2019
2018
2020
2041
2046
2074
2073
2106
2079
2082
2106
2086
2086
2050
1999
1959
1942
1926
1879
1847
1800
1793
1851
1881
1841
1842
1866
1944
1980
2013
2062
2095
2166
2218
2195
2207
2149
2117
2085
2047
2030
2024
1987
1993
2011
2032
2037
2048
2038
2081
2156
2075
2088
2130
2149
2171
2208
2169
2168
2183
2275
2047
2064
2007
1988
1943
1933
1894
1879
1850
1815
1811
1842
1912
1949
2018
2012
2008
1984
1940
2056
1934
1919
1939
1961
1954
1979
1973
2012
2017
2025
2023
2066
2047
2059
2112
2089
2145
2212
2154
2117
2105
2089
2139
2070
2050
2016
2000
2016
1985
1995
2031
2017
2011
2032
2001
2039
1998
2007
2011
2031
2039
2004
2007
1947
1938
1922
1912
1903
1965
1949
2043
2052
1968
1946
1951
1986
2024
2069
2107
2117
2072
2083
2095
2128
2087
2113
2107
2097
2116
2098
2094
2076
2062
2047
2068
2033
2017
2006
1947
1933
1886
1888
1904
1887
1875
1907
1899
1902
1896
1931
1932
1899
1934
1945
1954
1992
2011
2058
2048
2247
2071
2047
2045
2020
2004
1983
1981
2064
2001
2021
2047
2056
2055
2057
2040
2051
2027
2034
2074
2107
2111
2111
2146
2122
2098
2128
2071
2077
2055
2060
2014
1996
1961
1979
1956
1971
1985
2047
2023
2015
1999
2000
2001
2019
2044
2042
2157
2047
2055
2033
2016
2008
2036
1956
1921
1912
1917
1894
1956
1968
1982
2040
2041
2071
2106
2143
2188
2198
2167
2128
2084
2038
1990
1924
1904
1911
1977
1927
1952
1952
1983
2009
2047
2041
2049
2039
2042
2224
2070
2057
2042
2012
2036
2028
2066
2063
2071
2113
2129
2152
2066
2037
2000
1899
1832
1734
1719
1674
1694
1731
1786
1856
1936
1951
2018
2046
2111
2119
2138
2154
2148
2142
2138
2161
2141
2106
2104
2070
2043
2067
1973
1980
1932
1874
1875
1884
1889
1920
1936
1969
2015
2043
2048
2086
2110
2120
2168
2162
2138
2119
2070
2087
2122
2134
2149
2148
2129
2143
2017
1953
1896
1850
1822
1822
1888
1946
2007
2177
2118
2143
2162
2167
2199
2241
2263
2153
2123
2092
2037
2012
2002
2000
1967
1938
1890
1855
1831
1862
1865
1878
1906
1946
2024
2039
2139
2264
2373
2516
2651
2773
2930
2991
3052
3109
3220
3162
3203
3209
3189
3161
3049
2917
2715
2471
2174
1857
1543
1199
899
673
453
309
231
192
206
253
339
453
544
710
839
994
1170
1309
1470
1624
1737
1855
1946
2023
2099
2180
2269
2337
2359
2421
2417
2440
2426
2451
2442
2414
2376
2359
2344
2357
2314
2310
2310
2272
2239
2193
2178
2160
2135
2161
2151
2156
2143
2130
2097
2088
2096
2075
2102
2127
2190
2170
2158
2167
2134
2165
2197
2162
2201
2150
2111
2093
2072
2045
2031
2030
2032
1994
2061
1917
1894
1905
1920
1911
1898
1983
2045
1980
2038
2060
2079
2072
2104
2111
2116
2144
2127
2103
2139
2198
2220
2232
2224
2216
2177
2147
2094
2080
2127
2050
2011
1976
1936
1895
1920
1894
1899
1930
1955
2014
2017
2032
2023
2028
1967
2076
1975
2016
1999
2026
2049
2078
2106
2084
2099
2124
2112
2096
2095
2119
2137
2159
2196
2240
2231
2231
2125
2049
1985
1900
2059
1847
1826
1876
1815
1836
1871
1855
1854
1874
1907
1918
1932
1953
2013
1958
1964
2008
1978
1884
2007
1976
2009
2024
2032
2048
1978
1906
1838
1725
1631
1566
1539
1543
1540
1562
1548
1589
1664
1681
1716
1747
1783
1818
1823
1860
1919
1983
2079
2161
2206
2225
2216
2139
2074
1981
1936
1921
1895
1900
1936
2005
2008
2046
2061
2085
2080
2079
2079
2103
2142
2160
2203
2263
2312
2378
2411
2440
2428
2382
2311
2255
2176
2095
2048
2000
1949
1945
1915
1899
1911
1895
1892
1906
1924
1949
2008
2044
2071
2146
2173
2179
2177
2158
2130
2050
1995
1997
1973
1990
1961
1960
1991
1951
1962
2007
1942
1986
1979
2039
2089
2123
2144
2138
2119
2129
2144
2117
2067
2101
2056
2031
2050
2015
2014
1991
1966
1950
1952
1921
1915
1929
1944
1940
1984
2031
2008
2067
2099
2125
2163
2161
2131
2075
2022
1976
1941
1899
1888
1882
1959
1970
1955
1982
1996
2047
2047
2061
2082
2114
2111
2123
2100
2087
2090
2093
2111
2157
2100
2122
2097
2068
2043
2003
1969
1917
1908
1915
1925
1961
1999
2235
2080
2103
2105
2105
2063
2031
1973
1954
1935
1895
1860
1853
1827
1879
1904
1962
1974
1978
2016
2039
2035
2033
2018
2046
2016
2043
2080
2027
2064
2102
2056
2078
2062
2023
1983
1962
1943
1923
1967
1960
1992
2006
2031
1971
1966
1968
1986
2019
2087
2107
2111
2134
2134
2129
2272
2122
2138
2131
2164
2205
2138
2085
2054
1988
1961
1963
1946
1938
1937
2014
1919
1926
1964
1982
1958
2001
1980
1987
1954
1968
1946
1954
1949
1973
1985
1987
2065
2051
2055
2071
2166
2088
2065
2047
2054
2023
2025
1972
1960
1987
1992
2019
2011
2026
2011
2002
1996
1981
1982
1985
1975
1947
2017
1967
2022
2024
2010
1977
1956
1926
1937
1942
1953
1996
2030
2082
2142
2157
2208
2336
2328
2274
2271
2258
2238
2232
2219
2198
2135
2101
2063
2047
2035
2050
2087
2074
2088
2066
2083
2059
2028
1998
2049
1990
1928
1936
2032
1964
1984
1998
2048
2059
2034
2015
2048
2018
1986
1963
1975
1974
1967
1959
1943
1939
1911
1883
1894
1883
1932
1954
1959
1952
1984
2039
2079
2129
2151
2167
2219
2183
2169
2128
2100
2069
2110
2041
1991
1981
1972
2071
1948
1951
1972
1985
1998
2011
2007
2029
2000
1971
1971
1941
1930
1883
1880
1875
1883
1856
1828
1835
1889
1887
1998
1897
1916
1937
1934
1911
1880
1878
1876
1893
1919
1952
2045
2003
2019
2056
2067
2112
2141
2214
2275
2296
2326
2270
2238
2203
2168
2176
2121
2075
2048
2022
1971
1927
1898
1892
1910
1986
1958
1988
1991
2003
2026
2032
2080
2039
1976
2114
1944
1991
1903
1899
1945
1976
2032
2026
1998
1999
1969
2007
1963
1952
1979
1979
1970
1978
1955
1971
1997
2018
2035
2047
2055
2042
2022
2011
2018
1971
1968
1974
1943
1953
1951
2121
2048
2066
2113
2167
2252
2354
2500
2686
2773
2884
2984
3056
3130
3168
3234
3266
3251
3232
3162
3015
2856
2691
2480
2232
1971
1691
1419
1137
919
685
516
403
275
297
269
307
419
555
659
802
899
955
1057
1154
1303
1440
1562
1721
1879
1996
2196
2220
2313
2356
2405
2429
2461
2473
2496
2503
2502
2494
2486
2516
2455
2448
2430
2426
2383
2335
2287
2291
2302
2281
2249
2233
2174
2111
2088
1960
1993
1875
1877
1872
1900
1965
2029
2128
2124
2134
2172
2160
2208
2149
2214
2151
2068
2015
1976
1939
1924
1936
1959
1972
1975
2012
2010
2045
2045
2061
2084
2114
2061
2046
2038
2032
2045
2040
2043
2022
2041
2064
2070
2122
2087
2088
2083
2080
2060
2071
2061
2040
2086
2086
2042
2052
2052
2051
2089
2086
2062
2070
2019
2018
2005
2008
2016
2044
2047
2046
2031
2043
2183
1969
1993
1992
1977
1983
1986
1967
1959
1962
1996
2010
2037
2099
2095
2142
2188
2190
2231
2240
2275
2296
2308
2310
2302
2231
2244
2172
2131
2080
2031
1996
1994
1962
1930
1875
1831
1796
1776
1729
1744
1792
1793
1818
1814
1793
1755
1723
1696
1707
1733
1784
1753
1740
1714
1647
1612
1564
1559
1586
1625
1688
1729
1779
1864
1903
1934
1984
2020
2045
2062
2075
2080
2102
2064
2058
2047
2048
2048
2016
2023
2063
2054
2027
2037
2046
2045
2022
2063
2008
2171
2021
2142
2093
2125
2168
2212
2202
2212
2195
2152
2150
2135
2148
2159
2189
2191
2218
2248
2258
2233
2204
2148
2106
2002
1935
1884
1846
1812
1822
1863
1871
1906
1976
2034
2064
2093
2128
2095
2104
2094
2099
2101
2078
2064
2072
2085
2091
2104
2096
2087
2068
2041
2039
2031
2024
2027
1995
2005
2151
1968
1947
1943
1939
1940
1917
1867
1850
1856
1878
1907
1978
2016
2068
2063
2130
2178
2232
2304
2358
2303
2245
2190
2128
2078
2047
2010
1983
2015
2000
2011
2005
2001
1986
1998
1953
1941
1950
1938
1931
1919
1974
1975
2034
2053
2082
2104
2107
2040
1959
1915
1910
1881
1872
1906
1972
2086
1984
2018
2038
2032
2031
2018
2033
1967
1936
1929
1960
2007
2198
2151
2202
2219
2195
2238
2191
2167
2156
2185
2142
2080
2056
1987
1943
1993
1933
1917
1875
1896
1895
1935
1927
1927
1944
1921
1903
1854
1860
1894
1974
1997
2032
2066
2097
2103
2135
2132
2117
2066
2061
2001
1958
1992
1925
2037
1950
1950
1959
1963
1974
2040
2073
2095
2115
2147
2145
2114
2092
2057
2081
2045
2047
2051
2068
2075
2087
2050
2042
2018
2002
1969
1972
1925
1894
1898
1889
1889
1951
1969
1991
2011
2104
2027
2054
2036
2093
2083
2107
2249
2130
2130
2128
2128
2113
2118
2099
2080
2049
2026
1996
1944
1887
1858
1815
1813
1814
1845
1846
1890
1899
1937
1946
1974
1983
1999
2001
2039
2075
2110
2161
2259
2256
2244
2216
2188
2122
2112
2020
2026
2016
1988
1970
1980
1961
1946
1947
1918
1953
1909
1923
1895
1931
1903
1926
1899
1908
1895
1919
1934
1968
2020
2048
2108
2136
2244
2207
2228
2244
2241
2229
2209
2199
2240
2216
2197
2226
2201
2224
2146
2081
1991
1908
1848
1794
1777
1784
1788
1762
1822
1778
1849
1831
1868
1886
1859
1881
1902
1903
1931
1967
1996
2016
2040
2050
2060
2021
2018
2043
2059
2061
2148
2160
2164
2149
2109
2103
2112
2165
2259
2308
2317
2337
2299
2289
2203
2178
2176
2143
2082
2065
2054
2013
2067
2062
2044
2033
2034
2000
1912
1845
1794
1748
1655
1746
1809
1843
1955
2179
2065
2103
2097
2046
2000
1927
1892
1866
1816
1789
1795
1803
1809
1840
1854
1879
1897
1912
1962
1948
1995
1963
2007
2044
2008
2041
2089
2160
2242
2307
2320
2344
2314
2270
2211
2177
2104
2051
2016
1952
1909
1878
1854
1836
1839
1873
1873
1966
1954
1975
2000
2033
2047
2092
2120
2223
2234
2224
2195
2152
2228
2087
2047
2060
2041
2054
2050
2040
2065
2059
2044
2040
2026
2001
1985
1987
1946
1952
1904
1895
1886
1887
1871
1894
1918
1983
2023
2056
2086
2062
2069
2092
2115
2103
2121
2147
2207
2276
2331
2461
2561
2704
2800
2928
3088
3043
3085
3120
3123
3136
3208
3071
3025
2880
2716
2506
2231
1932
1622
1318
1007
735
552
367
238
164
107
162
179
284
416
554
695
852
1033
1162
1284
1417
1504
1642
1789
1904
2051
2198
2339
2466
2576
2635
2709
2720
2718
2737
2708
2727
2689
2655
2629
2660
2581
2560
2518
2469
2394
2331
2236
2151
2068
1994
1921
1882
1864
1834
1821
1841
1856
1888
1954
1955
1968
1987
2014
2040
2064
2121
2156
2183
2204
2227
2213
2200
2194
2135
2114
2063
2000
2006
1997
1972
1924
1898
1888
1947
1940
1993
2067
2089
2051
2072
2041
2044
2076
2119
2140
2183
2224
2224
2217
2238
2231
2212
2196
2166
2130
2097
2058
2032
2016
2033
2009
2014
2017
2015
1960
1887
1849
1857
1874
1880
1910
1935
2004
2034
2047
2081
2104
2127
2103
2136
2111
2103
2074
2095
2081
2059
2052
2027
2005
1973
1985
2018
2015
2044
2054
2016
1981
2026
2092
2121
2128
2163
2191
2173
2196
2152
2129
2092
2048
1994
1955
1898
1854
1810
1824
1803
1766
1798
1779
1814
1856
1872
1903
1903
1856
1699
1753
1696
1690
1740
1734
1792
1810
1959
1856
1861
1815
1803
1790
1769
1776
1741
1745
1727
1707
1728
1727
1745
1778
1811
1907
1947
2023
2098
2111
2131
2108
2091
2055
2071
2078
2118
2165
2223
2213
2248
2258
2272
2296
2302
2301
2324
2328
2294
2249
2195
2147
2100
2078
2039
2011
2012
2096
1970
1954
1944
1933
1939
1957
1985
1999
2040
2079
2121
2146
2154
2136
2087
2028
2026
1959
1956
1911
1908
1937
1936
1952
1951
2003
2001
1995
2036
2039
2104
2157
2223
2263
2275
2256
2199
2145
2246
2182
2067
2056
2036
1986
1964
1930
1912
1920
1924
1975
1930
1954
1938
1951
1963
1975
2018
2015
2059
2110
2140
2153
2141
2141
2115
2090
2081
2079
2052
1998
1979
1980
2007
2007
2023
2039
1973
2002
1950
1947
2000
2064
2144
2159
2159
2123
2113
2096
2012
1996
1937
1943
1923
1914
1936
1968
1999
2040
2062
2059
2046
2038
2019
1998
2011
1983
1932
1929
1954
1946
1991
2032
2088
2129
2190
2207
2196
2177
2134
2086
2019
2025
1981
1952
1979
1976
2000
1995
1992
1967
2032
1976
2095
1983
1931
1959
1944
1962
1951
1959
1938
1948
1942
1963
1968
1974
1981
1997
2050
2019
2041
2040
2036
2049
2115
2034
2023
2016
2016
1980
1991
1967
1981
1998
1993
2057
2080
2117
2120
2136
2145
2227
2149
2144
2122
2099
2040
1989
1945
1879
1863
1870
1913
1962
2031
2049
2068
2047
1995
1941
1881
1835
1776
1762
1774
1844
1859
1920
2004
2060
2151
2153
2264
2211
2202
2192
2192
2168
2150
2094
2057
2007
2014
2027
2052
2033
2034
2036
2031
2004
2030
2011
1999
2013
2032
2039
2047
2045
2052
2078
2090
2067
2071
2012
1973
1942
1924
1907
1904
1935
1958
1990
1958
1975
1991
1985
1975
1968
2004
1999
2015
2030
2050
2039
2037
2038
2025
2027
2175
2035
2000
2021
2033
2049
2049
2053
2032
2046
2023
2036
2040
1989
1982
1960
1940
2037
1964
1976
2002
1984
2001
2013
2023
2055
2096
2131
2142
2158
2196
2191
2223
2186
2160
2162
2188
2030
1959
1913
1904
1885
1911
1952
1976
1993
2027
2014
2054
2056
2075
2078
2067
2070
2092
2067
2083
2051
2050
2039
1986
1978
1939
1933
1920
1879
1893
1888
1875
1889
1852
1893
1888
1923
1908
1911
1928
1926
1951
1958
1960
1963
1981
1987
2047
2111
2099
2115
2134
2145
2144
2103
2030
1970
1943
1927
1923
1923
1932
1943
1970
2000
2023
2055
2092
2088
2090
2070
2161
2031
2032
1991
2000
1939
1960
1942
1937
1951
2004
2015
2096
2112
2119
2130
2107
2119
2152
2103
2114
2125
2087
2056
2055
2055
2081
2045
2039
2047
1980
1943
2016
1949
1935
1948
1995
2017
2050
1985
2002
1978
2005
1959
2003
1967
2080
2087
2122
2231
2335
2487
2591
2698
2759
2872
2916
2992
3061
3087
3090
3080
3036
2975
2920
2735
2556
2326
2088
1770
1487
1188
974
764
593
485
394
348
432
424
455
491
579
715
820
968
1162
1252
1405
1558
1715
1870
2035
2209
2311
2423
2536
2583
2636
2662
2663
2645
2634
2604
2603
2591
2651
2700
2713
2689
2611
2449
2306
2189
2084
2002
1916
1855
1788
1752
1750
1777
1952
1860
1921
1960
2020
2047
2050
2074
2086
2098
2104
2139
2120
2154
2228
2244
2296
2311
2340
2325
2302
2221
2147
2096
2023
1917
1877
1843
1802
1796
1811
1850
1850
1863
1862
1898
1908
1912
1971
1987
2028
2042
2083
2111
2126
2148
2183
2138
2127
2130
2138
2061
2093
2042
2000
2023
2001
2032
2047
2053
2068
2070
2090
2085
2081
2087
2176
2182
2210
2211
2200
2206
2177
2162
2148
2183
2135
2124
2117
2082
2019
1973
1889
1881
1855
1846
1855
1842
1888
1903
1911
1927
1981
2002
2048
2096
2167
2182
2202
2185
2234
2166
2115
2104
2101
2041
2023
1961
1991
1926
1911
1871
1803
1781
1855
1746
1746
1767
1762
1799
1783
1792
1815
1777
1860
1729
1662
1632
1649
1780
1776
1836
1926
1956
1984
1991
1954
1938
1854
1830
1752
1737
1748
1785
1837
1888
1936
1954
1967
2062
1974
2000
2055
2094
2156
2193
2194
2204
2207
2231
2206
2180
2176
2297
2099
2128
2128
2097
2098
2098
2084
2056
2065
2072
2161
2165
2208
2229
2225
2226
2184
2152
2096
2057
2041
2055
2024
2047
2020
2004
2039
2043
2048
2036
2068
2063
2050
2072
1998
1921
1885
1878
2023
1943
1983
2002
2028
2111
2111
2116
2123
2127
2111
2090
2089
2095
2033
2031
2056
2041
2098
2089
2080
2084
2055
2064
2047
2041
2030
2019
1996
2012
1987
1973
1963
1954
1955
1946
1951
1972
2031
2048
2052
2035
2067
2047
2066
2078
2090
2083
2067
2076
2090
2087
2051
2022
1995
1981
1985
1954
1960
1986
2016
2054
2100
2225
2351
2196
2186
2184
2104
2063
2019
1978
1966
1953
1966
1967
1957
1930
1890
1907
1949
1952
1940
1958
2079
2003
2023
2045
2068
2070
2043
2034
1993
1958
1910
1885
1885
1915
1960
1999
2053
2070
2049
2059
2050
2001
2013
2050
2023
2020
2048
2047
2066
2060
2043
2011
1983
1959
1960
1919
1945
1963
2033
2075
2065
2058
2075
2028
2036
2006
1999
2011
2057
2102
2098
2098
2095
2049
2054
2006
1992
1959
1980
1926
1888
1848
1847
1833
1834
1868
1886
2024
2006
2029
2031
2063
2039
2034
2060
2077
2081
2106
2138
2172
2188
2187
2174
2141
2098
2077
2050
1975
1942
1906
1898
1938
1974
1986
2025
2033
2043
2051
2078
2099
2110
2111
2112
2195
2079
2076
2070
2053
2032
2042
2020
1998
2027
2029
1985
1968
1974
1958
1978
1960
1982
1982
1974
2007
1987
1960
1927
1913
1891
1919
1933
1968
2101
2008
2035
2021
2013
1980
1978
1999
2002
2018
2029
2035
2035
2029
2040
2045
1975
1984
1928
1919
1950
1935
1969
1977
1996
2010
2023
2042
2047
2066
2090
2096
2175
2164
2154
2188
2155
2160
2158
2160
2144
2092
2107
2128
2143
2165
2199
2210
2153
2146
2046
2000
1938
1866
1808
1960
1781
1818
1850
1903
1966
2021
2050
2083
2085
2051
2056
2006
1995
1943
1923
1902
1910
1921
1920
1939
1957
1987
1979
1952
1920
1856
1815
1800
1791
1827
1894
1950
2016
2051
2094
2124
2149
2166
2185
2242
2151
2147
2115
2085
2122
2058
2047
2047
2046
2010
1963
1967
1943
1935
1902
1865
1834
1827
1839
1869
1921
1959
1994
2036
2049
2063
2063
2030
2039
2053
2087
2123
2140
2146
2146
2128
2151
2131
2117
2126
2104
2093
2100
2131
2159
2159
2177
2168
2186
2131
2099
2087
2042
2023
1999
1942
1898
1878
1852
1808
1767
1712
1701
1715
1744
1780
1840
1850
1941
2031
2119
2192
2325
2423
2572
2641
2781
2884
2985
3059
3136
3224
3321
3351
3384
3355
3280
3136
2944
2736
2439
2216
1856
1593
1280
1001
800
604
459
328
176
75
81
111
185
323
468
642
784
924
1084
1296
1477
1696
1880
2058
2196
2359
2414
2490
2528
2531
2545
2514
2511
2512
2509
2545
2579
2435
2395
2370
2335
2288
2239
2240
2243
2309
2328
2358
2415
2401
2394
2376
2373
2342
2304
2281
2240
2207
2138
2096
2051
1999
1920
1924
1831
1818
1839
1865
1876
1884
1923
1950
1962
1927
1902
1872
1906
1896
1942
2034
2094
2176
2214
2228
2237
2205
2154
2111
2068
2027
1976
1976
1955
1959
1960
2001
2010
2030
2047
2068
2056
2043
2061
2056
2092
2123
2127
2104
2147
2147
2135
2122
2096
2074
2024
1971
1925
1859
1815
1788
1792
1855
1918
1952
2005
2065
2100
2102
2119
2132
2156
2171
2214
2252
2291
2288
2283
2277
2240
2212
2132
2174
1975
1935
1858
1854
1858
1841
1854
1880
1871
1988
1903
1953
2016
2036
2003
1996
1996
2016
2006
2028
2020
2051
2068
2060
2051
2009
1966
1908
1827
1776
1696
1637
1578
1549
1559
1553
1601
1663
1715
1759
1823
1885
1939
1938
1951
1952
1988
1981
2008
1963
1948
1968
2147
1978
1936
1944
1910
1902
1917
1951
1967
2028
1992
1985
1964
1980
2010
2071
2111
2168
2179
2194
2177
2224
2171
2087
2037
1985
1936
1928
1926
1914
1963
1960
2091
2025
2076
2109
2146
2167
2194
2194
2208
2232
2247
2223
2271
2325
2320
2327
2352
2310
2283
2245
2174
2095
1987
1903
1850
1823
1830
1849
1862
1875
1875
1883
1904
1946
1984
2023
2083
2033
2041
2064
2106
2092
2143
2138
2124
2114
2099
2075
2018
1960
1946
1976
1955
1958
1981
2023
2048
2044
2039
2071
2075
2115
2108
2078
2084
2104
2119
2134
2187
2199
2181
2221
2207
2220
2159
2106
1983
1884
1815
1731
1674
1667
1647
1668
1712
1761
1811
1877
1957
1994
2049
2138
2150
2214
2239
2290
2326
2338
2326
2278
2201
2121
2077
1984
1907
1851
1827
1759
1768
1777
1819
1903
1999
2068
2131
2192
2203
2212
2220
2236
2215
2187
2065
2122
2073
2052
2047
2034
2050
2032
2034
2002
2004
1938
1926
1903
1904
1948
1926
1887
1863
1885
1930
1955
1996
2007
2024
2047
2060
2063
2056
2050
2039
2177
2063
2048
2024
2011
1971
1960
1951
1982
1980
2010
2044
2023
2058
2043
2048
2136
2002
1984
1974
1974
1988
1955
1929
1944
1976
2061
1984
1983
2020
1996
2010
2005
2031
2032
2048
2053
2033
2004
1990
1965
1984
2037
2028
2034
2048
2163
2092
2103
2146
2119
2105
2087
2115
1999
1988
1954
1921
1920
1896
1889
1912
1929
1975
2005
2049
2036
2103
2015
2041
2046
2049
2080
2076
2075
2121
2098
2123
2118
2115
2106
2043
2004
1990
1955
2023
1922
1906
1928
1958
1998
2018
2015
2031
2048
2042
2047
2045
2066
2072
2063
2047
2067
2063
2088
2096
2116
2102
2087
2054
2133
1999
1991
2000
1983
1970
1955
1950
1949
1939
1938
1929
1924
1945
1954
1972
1973
2005
2019
2099
2023
2001
2000
1999
2006
1994
1997
2056
2081
2087
2124
2138
2131
2106
2041
2016
2012
1975
1990
2003
2042
1967
1953
1917
1940
1974
1956
2007
2066
2067
2087
2128
2130
2116
2119
2140
2112
2092
2094
2079
2095
2102
2080
2057
2056
2012
2002
1986
1994
2028
2047
2064
2017
2001
2007
1970
1965
2004
1970
1952
1976
2024
1995
1983
2001
1988
1997
1974
1980
1987
2093
2021
2030
2066
2079
2079
2023
1966
1890
1836
1828
1799
1786
1815
1834
1897
1877
1866
1856
1802
1805
1854
1887
1958
2024
2215
2181
2238
2257
2287
2279
2266
2274
2241
2206
2167
2119
2084
2084
2030
2001
1980
1969
1964
2003
1961
1963
1979
2015
1993
2022
1995
1993
1986
2011
2036
2023
2033
2033
2000
2055
2055
2050
2073
2115
2124
2112
2043
1983
1932
1844
1798
1806
1794
1791
1855
1878
1954
2007
2049
2111
2108
2119
2076
2062
2026
2164
2050
2018
2047
2071
2107
2160
2234
2231
2271
2336
2399
2491
2591
2672
2768
2872
2976
3056
3138
3233
3271
3319
3295
3258
3122
2943
2712
2458
2186
1879
1559
1258
976
736
478
308
213
139
121
146
209
288
392
500
657
776
953
1085
1272
1440
1622
1765
1942
2058
2192
2292
2368
2452
2484
2528
2640
2560
2552
2514
2492
2481
2488
2500
2511
2526
2489
2444
2400
2347
2301
2260
2286
2278
2266
2231
2166
2103
2062
2028
1999
2021
1969
1914
1935
1941
1978
1993
2023
2062
2095
2126
2166
2176
2134
2111
2072
2038
2004
2047
2054
2078
2130
2179
2052
2016
2007
2007
2025
2039
2030
2002
2041
2032
2022
2031
2032
2027
2014
2008
2032
2015
2009
1984
1989
1995
1952
1976
1991
1991
2003
2011
2019
2046
2038
2044
2098
2128
2119
2099
2103
2068
2079
2072
2056
2062
2095
2115
2143
2159
2164
2197
2175
2174
2135
2082
2098
2116
2066
2012
2008
2015
2032
2028
2009
1986
1978
2060
2012
2017
2055
2072
2115
2128
2114
2097
2088
2056
2029
2020
2007
1991
2000
1965
1968
1924
1915
1931
1917
1936
1918
1924
1895
1904
1892
1911
1922
1881
1879
1862
1847
1836
1824
1787
1779
1769
1764
1750
1744
1753
1754
1766
1747
1693
1687
1683
1647
1664
1648
1667
1725
1719
1798
1876
1816
1845
1927
1982
2021
2073
2078
2123
2191
2192
2221
2254
2247
2264
2276
2273
2222
2214
2179
2146
2138
2113
2126
2149
2167
2227
2188
2217
2195
2172
2147
2152
2155
2148
2146
2128
2126
2101
2046
1978
1931
1887
1872
1823
1841
1817
1804
1799
1845
1849
1889
1919
1987
2059
2131
2164
2140
2111
2084
2037
2018
1973
2025
2066
2084
2105
2254
2141
2155
2132
2107
2116
2110
2111
2136
2172
2178
2191
2212
2222
2297
2179
2175
2131
2170
2063
1986
1969
1873
1863
1833
1842
1873
1883
1920
1964
1981
2025
1997
2036
2004
2038
2025
2018
2011
2026
1990
1977
1995
1988
1976
1991
1993
2027
2047
2063
2054
2048
2080
2035
2027
2004
2004
2005
2093
2035
2031
2029
2017
1995
1970
1969
2009
2018
2038
2077
2074
2074
2086
2049
2053
2046
2020
1987
2007
1998
2028
2068
2071
2064
2075
2063
2052
2051
2023
1983
1990
1976
2039
2067
2068
2075
2165
2062
1982
1915
1891
1865
1861
1877
1904
1968
1963
1975
1984
1986
2007
1991
2021
1989
1976
1985
2056
1968
2012
2015
2090
2085
2096
2110
2059
2001
1959
2000
1902
1908
1971
2019
2076
2108
2120
2150
2127
2132
2143
2157
2170
2186
2158
2125
2101
2072
2060
2047
2043
2096
2032
1996
1954
1947
1913
1874
1860
1864
1876
1928
1951
2013
2050
2062
2044
2116
2048
2074
2080
2078
2080
2091
2047
2072
2019
2048
2039
2060
2070
2048
2057
2040
2052
2018
1986
1940
1900
1887
1826
1791
1791
1769
1885
1908
2019
2119
2206
2208
2211
2171
2118
2159
2104
2098
2122
2122
2105
2097
2051
2035
2039
1961
1959
1956
1923
1939
1967
2018
1946
1925
1931
1929
1939
2020
2028
2046
2087
2041
2027
1997
1968
1957
1956
1965
1983
2012
2034
2042
2057
2050
2047
2035
2003
2008
2032
2052
2099
2107
2136
2188
2172
2119
2083
1996
1963
1919
1903
1927
1921
2010
1994
1999
2033
2018
2007
2037
2050
2047
2115
2139
2176
2157
2129
2123
2166
2008
1979
1948
1911
1912
1911
1934
1960
1970
1996
2014
2033
2092
2070
2096
2105
2128
2147
2170
2164
2154
2152
2102
2068
2059
2024
1991
1991
1960
1973
1928
1937
1941
1914
1944
1906
1917
1915
1943
1944
1986
1978
1984
2032
2019
1992
2016
1984
1982
1980
1972
1952
1940
1957
1941
1968
2003
2125
2096
2110
2120
2124
2077
2080
2066
2051
2054
2042
2014
2029
2112
1978
1990
2004
1969
1972
1953
1953
1914
1924
1904
1875
1846
1823
1806
1825
1869
1881
1968
1971
2044
2102
2143
2198
2239
2255
2233
2249
2198
2163
2158
2090
2059
2064
2038
2044
2051
2101
2066
2063
2016
1989
1990
1983
1996
2005
1981
2064
1983
2035
2024
1999
2020
2000
2000
1991
1996
2024
1982
1978
1959
1980
1985
2000
1995
1993
1980
1964
1971
2004
2034
2096
2170
2243
2446
2416
2503
2583
2704
2788
2859
2966
3071
3170
3225
3279
3277
3266
3175
3040
2876
2633
2414
2114
1786
1472
1117
801
538
313
178
128
111
129
281
272
396
548
675
843
971
1159
1263
1444
1578
1747
1810
1930
2043
2176
2302
2403
2486
2562
2617
2723
2691
2697
2674
2644
2610
2576
2530
2441
2395
2371
2299
2262
2214
2193
2136
2081
2054
2064
2039
2009
2012
2016
2033
2053
2056
2064
2070
2067
2070
2047
2078
2057
2051
2023
1991
1992
1990
1995
2014
2017
2029
2043
2055
2077
2079
2107
2096
2183
2082
2078
2039
2028
1981
2006
2020
2044
2054
2072
2095
2059
2055
2031
2037
2081
2101
2139
2162
2194
2207
2214
2180
2160
2128
2097
2080
2024
2011
1967
1995
1951
1973
1978
1991
2005
2079
2044
2082
2046
2026
2000
1985
1968
1970
2002
1955
1987
2027
2088
2101
2111
2176
2139
2120
2105
2108
2111
2062
2055
2038
2067
2075
2115
2119
2138
2159
2212
2270
2148
2105
2169
2001
1994
1933
1966
1901
1886
1876
1872
1902
1900
1924
1966
1936
1920
1879
1884
1859
1852
1839
1846
1840
1843
1850
1927
1882
1848
1827
1828
1807
1867
1872
1866
1890
1918
1906
1896
1880
1822
1779
1816
2015
1856
1863
1850
1904
1924
1883
1930
1937
1947
2017
2040
2031
2038
1997
1986
1923
1886
1864
1841
1823
1859
2031
1873
1920
1954
1987
2054
2084
2112
2137
2155
2291
2211
2223
2225
2297
2302
2320
2294
2296
2291
2277
2224
2219
2208
2234
2158
2089
2046
2035
1996
2034
2032
2059
2046
2043
2058
2075
2069
2064
2064
2059
2072
2042
2040
2046
2043
2070
2079
2098
2148
2128
2148
2088
2050
2010
1972
1952
1945
1969
1942
1991
2011
2057
2049
2096
2084
2057
2018
1979
1881
1835
1810
1789
1824
1836
1863
1905
1959
2047
2149
2220
2236
2257
2291
2277
2264
2230
2226
2187
2163
2136
2143
2136
2097
2093
2049
2015
1950
1929
1875
1851
1867
1862
1903
1921
1943
1990
1975
1975
1986
1991
1984
1978
1988
1951
1957
1965
1972
1986
1973
2000
2020
2050
2063
2081
2064
2062
2047
2040
2039
2052
2091
2098
2110
2135
2130
2156
2075
2048
1966
1942
1899
1856
1810
1799
1833
1815
1853
1885
1911
2033
1989
2040
2061
2126
2180
2230
2266
2248
2258
2239
2150
2071
2034
1948
1903
1900
1909
1958
1983
1997
2023
2015
2152
2059
2008
2007
2042
2039
2019
2007
1982
1964
1913
1931
1871
1861
1831
1855
1898
1933
1939
1975
1990
2022
2033
2014
2000
2012
2014
2044
2077
2102
2133
2149
2148
2181
2209
2183
2186
2211
2208
2206
2207
2164
2118
2089
2035
1993
1992
1938
1895
1888
1892
1914
1936
1949
1948
1969
1984
1973
1977
1926
1882
1871
1871
1909
1956
1965
2003
2008
2013
2006
2003
2015
1982
2001
1984
1977
1989
2015
2011
2026
2075
2106
2114
2135
2123
2104
2090
2083
2073
2096
2078
2051
2046
2049
2006
2042
1998
1968
1943
1945
1956
1988
1988
2048
2031
2081
2064
2067
2049
2060
2025
2061
2046
2051
2065
2024
1988
1941
1924
1914
1937
1960
2040
2091
2116
2139
2129
2146
2160
2151
2151
2168
2118
2098
2069
2019
1992
1977
1966
1984
2004
2158
2045
2080
2069
2030
1983
1983
2003
2015
1999
2021
1980
1985
1933
1903
1837
1824
1818
1837
1889
1861
1896
1907
1927
1949
1956
1953
1952
1956
2003
2103
2180
2187
2244
2218
2246
2213
2207
2201
2205
2209
2224
2209
2212
2193
2168
2058
2066
2015
1921
1876
1895
1877
1816
1831
1835
1939
1873
1895
1893
1875
1911
1887
1923
1918
1919
2044
1925
1921
1915
1936
1940
1967
1968
1977
2061
2034
2049
2072
2056
2053
2053
2061
2059
2106
2123
2113
2112
2114
2127
2081
2095
2055
2039
2030
2028
2026
2024
2032
2046
2084
2064
2074
2045
2039
2006
1991
2004
1969
1951
1934
1935
1928
1927
1928
1920
1973
1954
1942
1956
1985
1994
2034
2035
2030
2065
2048
2090
2047
2031
2013
2071
2000
2076
1946
2024
1925
1914
1940
1981
2026
2048
2083
2112
2078
2080
2096
2100
2171
2227
2223
2288
2478
2316
2343
2374
2404
2493
2575
2832
2727
2780
2785
2832
2870
2951
2960
2995
3022
2983
2945
2869
2830
2594
2446
2090
1807
1518
1213
958
754
553
452
363
275
263
289
348
421
495
614
685
799
950
1074
1225
1387
1565
1730
1896
2038
2172
2300
2414
2478
2560
2612
2659
2635
2634
2603
2577
2521
2472
2452
2435
2417
2414
2401
2559
2389
2360
2280
2232
2176
2144
2115
2091
2059
2078
2088
2074
2078
2087
2099
2247
2064
2036
2035
2051
2067
2086
2086
2080
2045
2036
1987
1939
1872
1876
1876
1896
1970
2015
2104
2139
2178
2178
2155
2167
2113
2071
2074
2065
2043
2047
2050
2011
1997
1987
1998
2014
2046
2068
2063
2052
2052
2026
2030
2006
1999
2001
1992
1975
1983
1999
1984
1978
1967
1968
1976
1982
2007
2040
2047
2084
2144
2131
2160
2191
2191
2188
2158
2135
2121
2135
2143
2158
2160
2193
2211
2227
2221
2178
2176
2175
2183
2119
2085
2047
2045
2069
2094
2121
2127
2142
2162
2142
2115
2080
2063
2020
1959
1935
1860
1811
1792
1788
1806
1790
1815
1851
1867
1886
1864
1824
1763
1747
1686
1737
1637
1615
1613
1670
1721
1803
1784
1804
1821
1813
1831
1836
1841
1832
1863
1878
1903
1952
2001
2003
2020
1995
1950
1893
1834
1828
1811
1874
1840
1833
1853
1867
1899
1970
2075
2016
2071
2114
2122
2134
2161
2205
2195
2247
2219
2242
2244
2319
2310
2332
2300
2239
2175
2085
2214
1943
1892
1846
1864
1897
1927
1975
2057
2107
2148
2154
2180
2178
2156
2295
2152
2156
2108
2098
2094
2103
2071
2080
2061
2072
2017
2028
1955
1934
1886
1870
1868
1866
1873
1863
1888
1936
1997
2048
2107
2177
2224
2265
2259
2256
2208
2167
2102
2116
2079
2052
2066
2063
2071
2080
2021
2086
1971
1918
1883
1912
1923
1959
2016
2029
2067
2078
2097
2102
2154
2130
2147
2175
2118
2112
2095
2059
2017
1984
1903
1888
1881
1894
1920
1952
1963
1994
1997
1995
1991
2076
2212
2099
2131
2176
2148
2112
2068
2041
1975
1930
1913
1895
1865
1871
1901
1963
2016
2059
2128
2164
2206
2221
2209
2214
2158
2127
2080
2020
1980
1967
1942
1934
1926
1924
1907
1928
1910
1939
1978
1987
2008
1983
1983
1987
1936
1926
1910
1940
1966
1966
1985
1991
1999
2020
2046
2135
2055
2058
2033
1966
1999
1881
1878
1883
1992
2001
2034
2078
2138
2137
2248
2192
2192
2187
2208
2150
2121
2233
2029
1988
1983
1938
1924
1934
1948
1976
2013
2022
2037
2041
2052
2065
2048
2048
2032
2000
1992
2023
1971
2018
2029
2027
2024
2098
2070
2047
2071
2112
2128
2114
2132
2103
2079
2065
2002
1943
1939
1928
1982
2122
2053
2103
2140
2151
2164
2121
2144
2092
2048
2005
1943
1908
1878
1919
1839
1792
1809
1798
1839
1888
1933
1976
1995
2017
2023
2005
1983
1960
1947
1912
1916
1942
1912
1913
1915
1966
1974
2055
2014
2026
2095
2115
2118
2137
2154
2134
2137
2166
2177
2179
2171
2131
2132
2068
2054
2031
2067
2030
2003
2015
2025
2006
2047
2050
2047
2019
2007
2044
1975
1986
1988
1991
2002
2021
2183
2068
2068
2060
2082
2063
2013
1976
1910
1853
1847
1873
1898
2065
2040
2075
2121
2159
2206
2208
2218
2168
2123
2105
2081
2096
2097
2152
2148
2144
2152
2144
2136
2078
1997
1917
1837
1776
1753
1747
1719
1710
1671
1684
1719
1715
1806
1886
1937
1968
1995
2045
2009
2027
2001
1998
2025
2095
2108
2160
2207
2260
2206
2161
2135
2109
2079
2063
2064
2086
2050
2045
2056
2014
2048
2089
1987
2000
1981
1962
1976
1971
2003
2008
2032
2085
2083
2073
2090
2108
2068
2079
2009
1962
1927
1901
1897
1885
1875
1907
1884
1838
1841
1843
1834
1855
1928
1897
1905
1980
1972
2019
2024
2069
2057
2141
2188
2228
2272
2303
2298
2342
2292
2291
2243
2190
2141
2104
2043
2047
2090
2125
2188
2281
2343
2417
2493
2586
2660
2750
2806
2910
2937
2993
3059
3015
2978
2874
2743
2554
2351
2096
1815
1531
1251
1040
809
640
528
437
348
339
358
382
438
539
677
839
1011
1219
1365
1576
1823
1915
2049
2209
2265
2339
2436
2451
2504
2484
2508
2496
2510
2491
2506
2487
2507
2485
2463
2432
2375
2351
2325
2265
2331
2245
2199
2167
2140
2112
2096
2095
2104
2116
2098
2129
2108
2114
2115
2126
2150
2125
2085
2080
2041
2019
1973
1950
1968
1926
1961
1968
1969
1983
2016
1987
1982
1989
1978
2000
2018
2079
2051
2061
2063
2085
2098
2090
2090
2050
2036
1977
1943
1959
1956
1941
1963
1938
1953
1991
2030
2082
2146
2147
2142
2128
2132
2128
2188
2101
2116
2106
2111
2062
2044
2009
1991
2011
1995
2005
2015
2051
2105
2151
2195
2212
2186
2145
2097
2054
2034
2011
2050
2118
2056
2063
2107
2120
2127
2171
2101
2106
2057
2080
1976
1909
1887
1852
1857
1919
1912
1975
2018
2023
2008
2005
2016
2036
2043
2050
2048
1991
1985
1991
1973
1970
1977
1985
1995
1974
1952
1881
1817
1761
1695
1645
1613
1575
1600
1630
1620
1695
1756
1815
1889
1960
1976
1984
1959
1986
1946
1951
1947
1943
1928
1911
1888
1910
1899
1933
1959
1993
1963
1926
1894
1881
1897
1931
1994
2086
2120
2195
2241
2279
2335
2458
2357
2360
2312
2271
2207
2182
2089
2034
2010
1959
2045
2009
2014
2012
2037
2035
2050
2055
2054
2020
2054
2052
2091
2127
2115
2119
2098
2098
2041
2014
1984
1934
1871
1863
1858
1863
1836
1849
1847
1863
1903
1957
1944
1978
1961
1972
2006
2039
2103
2157
2238
2273
2275
2258
2256
2211
2169
2143
2105
2088
2045
2022
1979
1941
1906
1922
1921
1946
1942
2001
2028
2256
2112
2127
2143
2135
2131
2062
2047
2022
2051
2023
2055
2063
2091
2105
2112
2059
2017
1964
1926
1905
1899
1920
1939
2034
2015
2048
2196
2056
2055
2031
2030
2024
1993
2017
2016
2051
2024
2018
2077
2042
2030
2056
2042
2047
2059
2065
2072
2066
2047
2048
2051
2061
2139
2169
2072
2111
2150
2178
2167
2134
2085
2052
1995
1947
1927
1888
1906
1899
1825
1818
1835
1863
1875
1911
1928
1934
1993
1966
1979
2008
2019
2036
2044
2151
2096
2086
2059
2038
2013
1971
1960
1970
1993
1996
2037
2148
2326
2172
2181
2163
2234
2161
2160
2100
2057
2022
2030
2018
2044
2018
1984
1923
1936
1902
1888
1872
1873
1882
1865
1892
1887
1924
1898
1951
1941
1968
1973
2012
2041
2048
2123
2096
2144
2159
2188
2192
2215
2186
2176
2142
2066
2047
2027
1991
1966
1981
1970
1977
2004
2021
2023
2039
2061
2109
2068
2091
2111
2244
2169
2152
2139
2095
1988
1907
1882
1828
1822
1824
1843
1923
1906
1918
1929
1951
1925
1930
1958
1967
1986
1981
1993
1991
2049
2063
2127
2109
2159
2152
2114
2096
2063
2090
1994
2017
1996
1997
2039
2049
2068
2226
2103
2136
2136
2113
2096
2022
1991
2016
2018
2047
2086
2127
2116
2102
2072
2047
2009
1983
1968
1995
1926
1919
2009
1962
2009
1999
2035
2054
2099
2092
2098
2075
2040
2032
2049
2036
2043
2035
2072
2078
2095
2115
2215
2128
2095
2072
2033
2003
1940
1871
1958
1787
1782
1781
1828
1848
1936
1922
1930
1950
1987
1987
2060
2041
2081
2099
2102
2069
2090
2058
2056
2048
2035
2048
1995
1980
1949
1907
1910
1872
1903
1932
1938
1954
1975
1991
2036
2004
2032
2042
2044
2073
2082
2152
2251
2210
2234
2200
2171
2143
2072
2017
1957
1896
1832
1821
1770
1814
1816
1867
1903
1972
2064
2067
2160
2180
2247
2271
2268
2242
2194
2160
2066
1993
1944
1892
1869
1861
1887
1911
1952
1958
1996
2031
2038
2171
2152
2183
2280
2405
2530
2684
2765
2870
2994
3106
3218
3306
3341
3319
3259
3174
3007
2806
2579
2235
1947
1695
1453
1187
993
798
687
730
562
463
448
443
426
432
478
583
699
815
984
1092
1239
1413
1536
1694
1858
2030
2166
2262
2297
2326
2376
2359
2386
2422
2492
2544
2539
2576
2589
2608
2634
2600
2557
2511
2494
2462
2443
2384
2346
2304
2250
2207
2210
2143
2177
2127
2098
2306
2100
2089
2105
2123
2159
2119
2092
2086
2025
2010
1958
1935
1916
1930
1919
1957
1992
2002
2036
2076
2112
2097
2066
2104
2023
2044
2035
1936
1920
1927
1958
1922
1907
1863
1871
1879
1868
1861
1831
1858
1886
1945
1993
2043
2113
2150
2203
2248
2243
2272
2297
2290
2205
2176
2120
2091
2090
2047
2101
2113
2105
2083
2118
2152
2167
2195
2192
2167
2175
2153
2108
2068
2063
2043
2012
1987
1968
1975
1988
1975
1982
1978
1984
2024
2073
2102
2125
2140
2115
2104
2054
2016
1972
1930
1895
1866
1839
1827
1819
1827
1838
1901
1939
1987
2015
2035
2009
1992
1960
1928
1854
1808
1792
1738
1719
1746
1739
1769
1791
1850
1891
1928
2161
1986
2017
1991
2192
2019
2007
2024
1985
2000
1898
1832
1797
1734
1696
1697
1647
1648
1658
1682
1699
1819
1776
1814
1895
1967
2019
2081
2129
2158
2236
2274
2395
2271
2233
2179
2147
2068
2072
2029
1968
1936
1926
1942
1959
2006
2028
2047
2076
2125
2191
2217
2271
2347
2328
2363
2417
2436
2471
2454
2448
2382
2291
2196
2128
2008
1920
1823
1771
1714
1680
1655
1651
1683
1740
1851
1859
1942
2004
2053
2107
2192
2221
2268
2292
2306
2293
2215
2112
2032
1978
1936
1928
1927
1937
1925
1960
2008
2072
2142
2080
2104
2092
2084
2086
2047
2043
2047
2039
2067
2071
2098
2097
2092
2045
2023
1952
1923
1902
1872
1857
1849
1840
1844
1859
1889
1943
1988
2056
2125
2153
2156
2201
2249
2247
2226
2343
2210
2185
2164
2142
2104
2081
2010
1972
1924
1967
1880
1942
1904
1904
1896
1907
1898
1927
1974
1974
2009
2000
2006
2048
2075
2144
2173
2231
2212
2216
2178
2227
2118
2049
2007
1981
1948
1921
1911
1890
1888
1864
1857
1785
1845
1851
1907
2066
1959
2033
2076
2112
2103
2142
2039
2020
1987
2000
1934
1911
1908
1952
2012
2016
2039
2066
2098
2140
2133
2244
2129
2135
2095
2076
2068
2000
1965
1944
1965
1990
2030
2002
2042
2029
2041
2039
2042
2031
2057
1967
1934
1924
1938
1935
1964
1972
2000
2003
2048
2029
1999
2018
2001
2017
2023
2058
2073
2064
2085
2053
2038
2032
2034
2027
2039
2012
2007
2001
2004
2016
2044
2103
2109
2083
2103
2133
2111
2076
2052
2006
1987
1971
1958
1973
1969
1943
1940
1931
1911
1927
1926
1927
1974
2008
1978
2012
2132
2023
2017
2039
2048
2024
2060
2034
2034
1988
2002
1942
1948
1908
1988
2044
2098
2148
2199
2199
2198
2159
2154
2126
2090
2069
2050
2016
2014
2036
2064
2022
2021
2016
2025
2024
1960
2040
1986
2039
1977
1997
1970
1940
2017
1936
1992
2000
2007
2044
2015
2067
2007
2020
2034
2102
2096
2107
2092
2096
2084
2102
2095
2110
2092
2085
2090
2084
2098
2083
2108
2127
2116
2144
2136
2147
2155
2112
2083
2071
2080
2256
2047
2010
1992
1991
1981
1983
1951
1917
1881
1831
1797
1820
1801
1911
1772
1807
1784
1825
1842
1903
1927
1952
1970
1986
1992
1993
1982
2017
1982
1943
1951
1946
1985
1991
2033
2048
2104
2103
2115
2127
2136
2165
2154
2140
2113
2082
2016
1989
2002
2034
2049
2076
2085
2099
2132
2047
2033
2048
1984
1916
1867
1862
1850
1929
1957
2044
2062
2092
2110
2142
2157
2181
2204
2194
2175
2131
2102
2084
2059
1986
1976
1943
1934
1948
1914
1980
1928
1972
1947
1984
1960
1978
1998
1994
2034
2027
2030
2035
1993
2013
2028
2033
2071
2120
2241
2452
2423
2534
2659
2794
2893
2999
3113
3180
3163
3194
3157
3256
3120
3060
2956
2805
2608
2384
2102
1736
1374
1032
753
476
270
171
140
122
164
247
336
488
615
755
900
1039
1206
1381
1566
1747
1883
1998
2133
2122
2151
2168
2218
2269
2309
2376
2371
2406
2432
2491
2457
2500
2519
2507
2483
2487
2466
2438
2394
2333
2300
2248
2268
2251
2255
2265
2220
2236
2180
2166
2149
2147
2135
2122
2133
2115
2111
2125
2124
2116
2071
2065
2031
1987
1986
1929
1897
1888
1896
1907
1947
2000
2007
1972
2023
1960
1943
1942
1911
1952
1977
1999
2023
2057
2094
2078
2087
2087
2051
2066
2011
2016
2010
2131
2104
2152
2209
2232
2235
2205
2162
2071
2026
1966
1983
1990
2019
2045
2018
2077
2038
2069
2049
2096
2079
2084
2062
2059
2077
2032
2028
2009
1955
1935
1958
1918
1923
1958
1959
2031
2038
2056
2091
2119
2108
2094
2078
2064
2088
2091
2084
2094
2112
2128
2147
2181
2153
2140
2169
2164
2174
2200
2173
2150
2095
2074
2015
1951
1913
1830
1799
1784
1727
1720
1711
1733
1762
1774
1793
1827
1882
1922
1935
1968
1914
1822
1767
1693
1683
1607
1584
1533
1546
1568
1569
1606
1659
1792
1711
1749
1759
1773
1831
1890
1913
1966
1991
2063
2137
2192
2252
2255
2247
2212
2153
2124
2088
2102
2149
2137
2137
2174
2194
2225
2232
2260
2293
2308
2311
2330
2255
2247
2203
2198
2176
2107
2092
2088
2102
2075
2064
2051
2111
2087
2070
2048
2048
2040
2040
2009
2024
1969
1980
1943
1970
1958
1954
1952
1934
1943
1959
1950
1922
1904
1936
1939
2048
2021
2058
2212
2092
2099
2228
2137
2157
2087
2100
2082
2071
2140
2164
2256
2274
2287
2295
2161
2079
2016
1971
1875
1828
1816
1817
1828
1847
1872
1891
1916
1918
1934
2018
1960
1992
2003
2040
2077
2085
2116
2127
2134
2203
2171
2199
2200
2196
2179
2163
2141
2117
2051
2002
1921
1899
1939
1921
1947
1986
1951
1955
1945
1907
1944
1977
2146
1975
1998
2003
2015
2048
2064
2072
2086
2080
2093
2069
2084
2102
2097
2147
2124
2117
2068
2037
1938
1865
1839
1794
1771
1754
1750
1797
1835
1851
1853
1883
1898
1957
1967
1996
2036
2071
2124
2187
2215
2192
2209
2205
2227
2224
2250
2203
2179
2134
2194
2100
2079
2071
2054
2002
1946
1898
1857
1831
1807
1763
1825
1816
1838
1916
1908
1951
1937
1959
1996
2018
2044
2050
2048
2012
1987
1985
1992
2039
2084
2111
2146
2156
2148
2129
2090
2063
2014
1996
1988
1995
2016
2019
2046
2050
2053
2065
2064
2080
2106
2119
2107
2090
2077
2060
2076
2058
2053
2032
2016
1995
2028
2044
1968
1946
1913
1900
1839
1840
1872
1895
1960
2018
2018
2086
2047
2014
2000
2004
2002
2017
2029
2046
2084
2064
2057
2091
2022
1999
1954
1937
1915
1919
1923
1904
1934
1927
1976
2048
2055
2140
2120
2128
2128
2072
2061
2064
2048
2047
2230
2105
2096
2056
2047
2075
2130
2146
2138
2150
2138
2087
2054
2018
1982
1956
1923
1919
1912
1909
1936
1947
1991
2016
2033
2063
2116
2123
2115
2099
2098
2017
1992
1955
1928
1919
1919
1955
1955
1956
2081
1944
1891
1924
1932
1973
2025
2051
2100
2131
2166
2187
2365
2162
2138
2156
2135
2145
2166
2161
2183
2173
2187
2167
2163
2095
2047
1976
1894
1905
1875
1824
1840
1835
1847
1899
1922
1963
1935
1953
2016
1981
2007
2011
2025
2037
2047
2030
2047
2103
2106
2143
2140
2129
2112
2070
2034
2032
1984
1940
1886
1836
1811
1797
1804
1821
1800
1856
1889
1906
1997
2000
2009
2031
2065
2111
2178
2248
2251
2247
2249
2195
2112
2044
1989
1935
1914
1871
1828
1815
1783
1814
1823
1918
1944
1988
2037
2055
2076
2194
2163
2226
2264
2308
2287
2271
2201
2119
2067
1991
1920
1890
1911
1882
1892
1902
1897
1892
1899
1901
1906
1910
1925
1945
2004
1986
2013
2030
2075
2092
2087
2096
2119
2086
2051
2027
2040
1987
1974
1992
2047
2078
2153
2187
2270
2297
2287
2306
2329
2392
2479
2602
2736
2790
2868
2946
3003
3086
3146
3216
3247
3231
3208
3135
2963
2738
2444
2153
1804
1514
1251
983
802
602
453
352
265
210
190
235
303
413
528
661
806
941
1109
1272
1442
1578
1687
1779
1888
2003
2045
2143
2232
2310
2339
2399
2448
2510
2512
2539
2494
2478
2463
2428
2475
2385
2464
2382
2399
2400
2418
2368
2335
2316
2249
2212
2140
2240
2148
2115
2113
2130
2121
2125
2158
2146
2175
2124
2122
2137
2152
2154
2160
2128
2104
2113
2036
1982
1979
1974
2006
2000
2040
2080
2086
2085
2052
2041
2010
1995
1942
1904
1873
1859
1860
1872
1901
1930
1957
1985
2008
2042
2074
2053
2098
2122
2139
2143
2112
2096
2035
1999
2013
2042
2045
2054
2063
2071
2052
2094
2109
2119
2143
2172
2164
2160
2146
2142
2151
2153
2128
2128
2091
2121
2097
2084
2193
2150
2195
2196
2142
2101
2032
1970
1917
1846
1808
1795
1784
1826
1829
1836
1857
1930
2136
1987
2050
2063
2095
2062
2018
1968
1928
1871
1884
1914
1943
2094
1997
2064
2114
2195
2139
2151
2102
2052
2007
2003
1985
1971
1965
1952
1932
1896
1855
1793
1716
1695
1658
1679
1663
1677
1704
1735
1776
1757
1793
1756
1794
1779
1762
1759
1778
1781
1792
1834
1863
1938
1952
1975
2016
1989
2016
2040
2056
2123
2107
2102
2085
2067
2025
2004
2031
2077
2150
2244
2232
2245
2256
2287
2255
2222
2206
2232
2171
2167
2182
2150
2135
2138
2140
2131
2162
2180
2198
2148
2111
2039
1963
1960
1903
1970
2014
2028
2040
2056
2064
2065
2072
2080
2074
2063
2030
2037
1997
1976
1978
2003
2034
2066
2110
2102
2129
2127
2122
2119
2180
2119
2167
2177
2195
2186
2147
2115
2044
1982
1890
1831
1771
1740
1696
1690
1734
1746
1808
1885
1992
2106
2109
2111
2137
2130
2137
2144
2151
2133
2145
2056
2025
2044
2083
2137
2141
2164
2167
2151
2064
1999
1919
1863
1848
1833
1840
1835
1833
1830
1824
1848
1872
1911
1966
2009
2062
2084
2108
2117
2154
2143
2181
2192
2239
2262
2288
2279
2287
2267
2248
2188
2146
2032
1885
1863
1820
1792
1865
1859
1924
1966
2002
2035
2048
2132
2096
2062
2047
2019
1987
1931
1878
1842
1836
1852
1850
1848
1867
1843
1840
1819
1867
1951
2037
2115
2169
2248
2255
2313
2324
2296
2287
2216
2151
2096
2044
2021
2002
1997
1969
1962
1957
1945
1980
1947
1937
1943
1955
1956
1969
1975
1960
1924
1901
1860
1856
1863
1929
1946
1960
1979
2021
2055
2095
2167
2295
2264
2259
2267
2261
2248
2210
2177
2128
2061
2048
1961
1899
1871
1850
1845
1861
1878
1836
1959
1909
1927
1950
1956
1987
1959
1959
1980
1996
1993
1989
1986
1989
1978
2012
2032
2047
2067
2055
2057
2098
2064
2063
2081
2055
2068
2079
2047
2036
2019
2015
2005
2003
2004
2067
1948
1976
1979
1983
1998
1998
2020
2044
2054
2064
2112
2085
2101
2111
2098
2114
2081
2007
2042
2059
2049
2052
2153
2092
2086
2113
2136
2136
2127
2054
2019
1980
1980
1991
1955
1951
1960
2005
1985
2004
2036
2030
2024
2035
1992
1922
1894
1874
1847
1840
1853
1839
1886
1884
1910
1941
2081
2088
2039
2046
2027
2068
2035
2025
2037
2064
2133
Flashing 407 pages.
2168
2189
2181
2161
2112
2088
2043
2016
2013
2025
2019
2016
2067
2081
2103
2168
2059
2045
1984
1959
1975
1959
1966
1970
1982
2021
2039
2072
2109
2168
2192
2158
2158
2131
2098
2071
2036
2045
2003
1989
1958
1915
1859
1872
1839
1862
1895
1921
1967
1978
2032
2035
1999
1966
1936
1930
1858
1892
1859
1921
1854
1835
1843
1892
1883
1906
1956
1993
2054
2088
2144
2161
2181
2212
2225
2159
2118
2051
2015
1973
1958
1975
1996
1983
2014
2031
2106
2084
2076
2096
2136
2113
2119
2128
2131
2127
2138
2144
2150
2159
2150
2119
2144
2123
2135
2119
2134
2117
2084
2044
2008
1964
1902
1856
1834
1856
1825
1922
1963
1991
2023
2022
2003
1973
1949
1910
1900
1885
1923
1891
1879
1881
1935
1990
2067
2189
2310
2462
2615
2751
2888
3019
3164
3295
3405
3484
3505
3498
3407
3283
3190
2912
2650
2236
1904
1553
1256
926
539
340
175
63
20
24
116
208
319
463
624
818
929
1059
1212
1371
1583
1731
1880
2013
2106
2244
2288
2350
2414
2461
2508
2511
2545
2572
2576
2633
2593
2579
2549
2519
2479
2449
2407
2384
2329
2273
2226
2182
2165
2149
2153
2122
2098
2130
2087
2026
2003
1986
1967
1984
1963
1983
1976
1968
1981
1955
1945
1999
2008
2043
2042
2051
2029
2032
2043
2048
2035
2028
2006
2008
2022
2039
2079
2122
2145
2161
2136
2130
2104
2079
2047
2026
2023
1987
2030
2037
2054
2068
2063
2069
2074
2051
2065
2061
2041
2069
2043
2052
2056
2066
2047
2035
2054
2079
2066
2047
2048
2092
2080
2088
2086
2061
2044
2008
1995
1960
1991
2024
2047
2079
2140
2177
2220
2271
2320
2326
2329
2257
2183
2099
2029
1987
1939
1908
1912
1887
1904
1901
1907
1940
1939
1968
1967
1983
1938
1901
1869
1834
1799
1740
1723
1717
1747
1789
1823
1872
1885
1924
1888
1855
1845
1826
1815
1792
1768
1707
1706
1675
1671
1704
1751
1781
1850
1912
2007
2067
2115
2131
2146
2158
2131
2124
2098
2082
2060
2027
2034
2016
1998
1996
1992
2019
2033
2055
2083
2111
2134
2167
2171
2117
2068
1992
1968
1957
1931
1954
2004
2030
2044
2073
2128
2173
2210
2236
2215
2227
2198
2208
2186
2115
2074
2071
2075
2077
2096
2142
2149
2127
2128
2115
2123
2146
2119
2120
2146
2115
2130
2063
2029
2002
1948
1908
1857
1813
1804
1780
1829
1858
1881
1902
1942
1986
2005
2003
1984
1962
2037
1983
2061
2116
2233
2356
2308
2277
2233
2201
2112
2041
1988
1964
1919
1920
1920
1914
1907
1936
2006
2002
2035
2042
2059
2035
2013
2047
2033
2049
2082
2144
2105
2099
2084
2072
2051
2039
2007
1975
1981
1983
1967
1980
1968
1970
1969
1960
1982
2014
2025
2055
2079
2078
2092
2109
2086
2069
2051
1997
2002
2020
1977
1968
1944
1916
1863
1839
1842
1889
1886
1926
1944
1967
1981
2003
2027
2067
2063
2055
2040
2111
2018
2041
2078
2135
2189
2259
2260
2240
2220
2122
2042
2001
1973
1939
1926
1871
1879
1888
1894
1903
1883
1860
1843
1828
1856
1958
2061
2101
2162
2221
2256
2231
2251
2177
2108
2051
2028
2009
1989
1963
1956
1951
1903
1902
1936
1954
2017
2023
2036
2011
2005
1978
1981
1986
1991
2007
2066
2046
2062
2086
2044
2028
2024
2033
2064
2099
2162
2196
2383
2179
2142
2129
2071
2018
1982
1963
2122
1893
1844
1928
1764
1746
1804
1827
1887
1951
2024
2135
2232
2295
2318
2347
2284
2207
2118
2051
2001
1936
1911
1887
1863
1872
1963
1927
1944
1962
1960
1943
1947
1932
1927
2003
1992
2056
2056
2088
2117
2135
2183
2234
2275
2306
2333
2312
2250
2170
2095
2003
1914
1827
1781
1732
1716
1731
1804
1799
1859
1879
1962
2008
2074
2095
2187
2367
2204
2170
2166
2103
2055
2033
2030
2031
2050
2049
2035
2016
2079
1957
1930
1961
1951
1990
2028
2044
2112
2088
2143
2170
2209
2234
2207
2150
2082
2014
1894
1856
1789
1769
1804
1848
1900
1968
2020
2063
2124
2108
2111
2091
2075
2082
2103
2211
2168
2222
2214
2171
2107
2029
1974
1934
1937
1832
1783
1764
1758
1707
1723
1752
1817
1785
1813
1857
1851
1983
1900
1995
2016
2098
2166
2199
2239
2253
2261
2210
2212
2299
2134
2129
2083
2058
2013
2040
2006
2001
1979
1991
2003
2037
2041
2029
2021
2034
2006
2031
2046
2081
2153
2150
2165
2145
2123
2042
1987
1934
1907
1890
1894
1890
1949
1928
1952
2018
2030
2074
2093
2098
2077
2027
1982
1939
1938
2006
1952
1915
1895
1875
1887
1949
1991
2027
2069
2096
2087
2075
2081
2100
2148
2206
2290
2366
2483
2602
2740
2793
2855
2936
2960
3067
3129
3170
3192
3194
3139
3029
2864
2661
2412
1988
1685
1407
1088
821
500
347
230
159
137
152
240
328
447
576
726
976
1135
1291
1447
1605
1787
1882
1969
2052
2144
2299
2361
2433
2514
2579
2630
2678
2686
2714
2715
2719
2715
2680
2641
2574
2480
2418
2377
2344
2298
2203
2191
2071
1996
1908
1844
1800
1774
1816
1853
1893
2143
2025
2047
2091
2119
2145
2103
2093
2060
2056
2065
2077
2120
2097
2121
2128
2101
2064
2023
1984
2015
1918
1912
1911
1908
1947
1989
2035
2047
2105
2164
2165
2182
2167
2183
2152
2112
2079
2087
2076
2072
2099
2102
2098
2048
2033
1990
1973
1955
1923
1883
1888
1897
1970
2015
2048
2127
2158
2178
2200
2208
2208
2182
2152
2132
2109
2058
2081
2121
2096
2137
2197
2087
2085
2043
2015
1970
1927
1938
1962
1984
2042
2061
2044
2005
2024
2012
2012
1969
1932
1957
1927
1935
1936
1939
1936
1945
1996
2000
2007
2025
1984
1930
1859
1834
1767
1741
1731
1750
1781
1791
1788
1759
1777
1767
1750
1731
1693
1720
1732
1794
1819
1872
1894
1919
1960
1970
1969
1957
1977
2000
2016
2029
2001
2009
2037
2047
2039
2072
2071
2056
2067
2060
2079
2142
2161
2183
2190
2184
2191
2191
2196
2199
2195
2162
2151
2120
2119
2093
2109
2116
2135
2149
2137
2111
2105
2063
2019
1962
1907
1849
1799
1795
1787
1817
1874
1927
1995
2064
2143
2142
2190
2208
2242
2258
2248
2215
2187
2170
2115
2097
2047
2014
2019
2012
1975
1964
1961
1959
1941
1965
1994
1994
2009
1986
2046
2098
2095
2116
2115
2137
2157
2161
2107
2083
2045
2002
1934
1906
1871
1868
1882
1896
1914
1910
1902
1909
1916
1958
2026
2138
2095
2112
2133
2146
2175
2194
2209
2238
2225
2204
2111
2066
2002
1989
1933
1923
1956
1964
1994
1994
2081
2071
2122
2134
2160
2155
2169
2188
2159
2147
2131
2098
2083
2058
2041
2016
2039
2039
2045
2040
2035
1967
1920
1870
1808
1799
1721
1706
1681
1797
1737
1794
1824
1860
1911
1988
2076
2097
2141
2187
2236
2299
2323
2337
2328
2294
2220
2145
2061
2022
1937
1855
1843
1840
1843
1871
1944
1972
2011
2031
2032
2048
2034
2041
2023
2018
1962
1947
1913
1906
1887
1887
1896
1866
1885
1994
1894
1908
1924
2001
2131
2076
2075
2200
2118
2143
2193
2200
2189
2188
2186
2143
2133
2096
2087
2068
2051
2066
2033
2015
1989
1968
1935
1903
1877
1927
1915
1971
1996
2046
2065
2087
2093
2101
2096
2106
2082
2082
2048
2067
2048
2039
2017
1977
1991
2000
2036
2068
2112
2079
2023
1977
1922
1787
1694
1683
1715
1747
1826
1839
1922
1919
1951
1987
2004
2043
2076
2113
2137
2149
2163
2182
2181
2207
2205
2192
2190
2155
2152
2117
2103
2088
2074
2023
2019
2135
1988
2010
2026
2072
2061
2049
2038
1997
1988
1974
1962
1970
2002
1973
2000
2022
2056
2104
2168
2176
2109
2092
2051
2007
2018
2001
2002
2003
2018
2062
2098
2085
2048
2048
2051
1952
1928
1906
1922
1903
1931
1937
1958
1966
1983
1973
1959
1951
1941
1919
1920
1847
1824
1796
1777
1793
1839
1902
1921
1976
2021
2064
2183
2126
2175
2178
2194
2200
2217
2223
2271
2250
2249
2240
2233
2208
2164
2096
2031
1974
1917
1876
1840
1793
1792
1806
1830
1856
1923
1965
2153
2066
2084
2040
2010
2011
2007
2009
2040
2052
2047
2074
2099
2066
2087
2097
2071
2078
2079
2126
2093
2151
2154
2152
2145
2113
2092
2064
2045
1995
1970
1976
1937
1926
1904
1914
1907
1944
1992
2064
2134
2209
2286
2366
2481
2614
2744
2867
2986
3022
3079
3107
3088
3079
3077
3015
2807
2640
2399
2152
1877
1570
1167
888
795
513
356
263
243
272
342
451
670
798
992
1111
1247
1462
1551
1697
1782
1887
2065
2119
2228
2274
2320
2503
2410
2434
2456
2495
2524
2515
2527
2532
2518
2498
2494
2462
2452
2434
2443
2402
2382
2306
2242
2192
2096
2011
1954
1923
1947
1948
1960
1965
1984
1987
2018
2024
2024
2036
2064
2168
2070
2082
2088
2116
2132
2114
2091
2041
2003
1949
1901
1902
1865
1874
1927
1969
2008
2046
2080
2120
2142
2141
2142
2113
2097
2079
2063
2095
2096
2057
2192
2031
2016
2024
1991
2004
2047
2080
2123
2178
2234
2258
2241
2178
2107
1956
1901
1838
1834
1849
1911
1938
1997
2016
2054
2103
2132
2178
2141
2119
2116
2105
2085
2104
2055
2047
2060
2065
2078
2094
2103
2121
2118
2171
2167
2112
2088
2077
2047
2035
2021
2044
1987
1961
1947
1943
1984
1977
1946
1924
1870
1832
1798
1798
1875
1771
1801
1791
1816
1779
1778
1742
1704
1651
1641
1614
1652
1819
1799
1910
2017
2098
2216
2201
2167
2109
2046
1953
1893
1866
1815
1797
1787
1794
1779
1807
1817
1791
1812
1796
1796
1810
1863
1920
2002
2136
2190
2304
2328
2352
2362
2359
2333
2304
2277
2264
2227
2228
2222
2207
2190
2153
2134
2117
2087
2094
2107
2096
2084
2059
2026
2008
2025
1998
2019
2017
2000
1988
1957
1981
1990
2022
2042
2075
2102
2138
2159
2149
2112
2056
2019
2056
1927
1885
1807
1746
1731
1762
1810
1814
1858
1883
1935
1972
2048
2181
2168
2203
2286
2388
2316
2320
2285
2273
2278
2265
2247
2239
2201
2144
2105
2019
1953
1930
1873
1858
1858
1844
1870
1911
1946
1959
1986
1999
1986
1959
1951
1971
2006
2009
2016
1971
1974
1952
1938
1921
1918
1917
1919
1937
1940
1955
2018
2026
2056
2081
2096
2141
2135
2136
2119
2102
2093
2088
2120
2091
2117
2144
2165
2162
2151
2137
2111
2091
2078
2088
2087
2051
2108
2047
2051
2041
2012
1975
1937
1919
2049
1893
1894
1859
1909
1855
1855
1873
1878
1888
1887
1887
1868
1856
1848
1886
1938
1995
2047
2102
2162
2178
2207
2176
2176
2214
2215
2216
2256
2234
2219
2206
2185
2166
2111
2112
2061
2054
2038
2003
1959
1902
1875
1836
1882
1832
1826
1850
1863
1887
1920
1944
1943
1954
1976
1965
2018
2163
2081
2079
2097
2095
2096
2025
1981
1943
2000
1990
2024
2063
2103
2106
2118
2119
2123
2143
2154
2160
2147
2083
2039
1990
1962
1948
1939
1953
1975
1984
1990
1976
1956
1921
1932
1904
1906
1934
2010
1986
2007
2032
2069
2075
2087
2042
2005
1993
2010
1973
1975
1990
2000
2036
2058
2103
2153
2156
2178
2177
2166
2102
2055
2023
1981
1928
1897
1879
1886
1898
1903
1936
1935
1991
2048
2172
2135
2141
2110
2070
2030
1999
2011
1968
1960
1950
1942
1908
1907
1871
1856
1875
1892
1912
1920
1945
1975
1991
2016
2047
2079
2125
2148
2152
2150
2149
2089
2053
2061
2074
2060
2117
2127
2208
2207
2224
2207
2244
2203
2240
2147
2079
2031
1960
1910
1823
1774
1741
1728
1762
1775
1850
1890
1951
1967
1970
1996
2018
2037
1993
1963
1963
2035
1884
1890
1878
1905
1936
1970
1975
1998
2019
2058
2094
2115
2143
2168
2208
2238
2253
2242
2209
2131
2067
2011
1972
1946
1898
1902
1913
1943
1933
1913
1904
1889
1904
1945
2039
2131
2212
2225
2205
2161
2128
2067
2033
2017
1984
1967
1929
1934
1954
1929
1932
1918
1932
1963
1995
2063
2115
2153
2191
2191
2178
2172
2162
2125
2104
2079
2042
2028
2014
1966
1930
1908
1895
1860
1872
1891
1942
1996
2063
2136
2152
2192
2222
2279
2295
2368
2469
2568
2651
2741
2815
2961
3008
3115
3208
3256
3258
3212
3103
2966
2819
2541
2244
1919
1615
1246
832
574
385
242
158
Flashing done.
150
176
235
352
494
629
681
906
1063
1233
1409
1575
1742
1883
2011
2138
2279
2408
2511
2602
2663
2732
2746
2719
2699
2634
2560
2502
2447
2406
2340
2326
2290
2263
2246
2208
2175
2123
2084
2052
2071
2087
2085
2049
2055
2075
2076
2184
2108
2120
2067
2057
1996
1963
1959
1983
2009
2060
2075
2082
2097
2094
2092
2065
2066
2068
2051
2056
2032
2050
2058
2114
2153
2185
2232
2270
2320
2304
2232
2119
1975
1901
1827
1766
1701
1677
1719
1774
1828
1903
1975
2015
2072
2145
2200
2422
2310
2317
2318
2320
2313
2292
2258
2238
2253
2235
2257
2247
2211
2128
2022
1903
1804
1719
1671
1664
1638
1664
1687
1751
1807
1873
1940
2034
2058
2118
2107
2128
2130
2142
2145
2176
2197
2224
2256
2268
2272
2283
2291
2254
2247
2176
2176
2077
2049
2014
2005
1969
1935
1933
1900
1910
1900
1907
1906
1907
1894
1920
1904
1936
1949
1957
1975
2032
1963
1904
1799
1658
1566
1427
1371
1311
1324
1343
1423
1527
1597
1664
1700
1747
1743
1808
1827
1862
1951
1983
2056
2114
2169
2196
2303
2253
2288
2299
2291
2277
2256
2211
2191
2164
2125
2129
2084
2069
2066
2072
2088
2079
2085
2076
2106
2085
2083
2084
2054
2046
2053
2064
2097
2111
2124
2113
2073
2008
1940
1879
1848
1848
1847
1898
1943
2008
2071
2157
2147
2170
2159
2127
2118
2119
2129
2142
2146
2191
2179
2135
2120
2127
2128
2126
2101
2053
2030
1986
1952
1921
1886
1874
1844
1813
1809
1810
1851
1926
2021
2137
2244
2300
2323
2321
2310
2266
2176
2133
2140
2147
2110
2090
2059
2036
1962
1878
1883
1863
1854
1848
1842
1863
1881
1910
1940
1960
2034
2036
2049
2061
2047
2047
2032
2034
2057
2061
2190
2115
2128
2101
2059
2022
1968
1896
1846
1771
1743
1750
1781
1846
1911
1968
2024
2091
2161
2220
2274
2305
2311
2295
2255
2211
2115
2047
2014
1969
1957
1973
1978
2005
2007
2010
2002
2010
2011
2025
2000
1983
1964
1956
1967
2002
2052
2095
2164
2191
2177
2103
2033
1962
1938
1916
1888
1895
1895
1903
1888
1881
1861
1887
1893
1895
1916
1933
1966
2024
2067
2099
2143
2187
2250
2231
2225
2167
2059
2016
1962
1922
1878
1849
1900
1879
1909
1930
1933
1942
1949
1964
1953
1966
1968
1983
1975
1992
1994
2007
2042
2050
2044
2071
2092
2150
2112
2128
2117
2111
2079
2048
2012
1971
1976
1943
1952
1988
2010
2023
2045
2048
2066
2075
2065
2062
2069
2059
2052
2072
2112
2137
2160
2185
2138
2096
2033
1966
1920
1878
1847
1835
1821
1828
1855
1898
1877
1926
1970
2015
2060
2102
2111
2130
2112
2122
2128
2128
2139
2158
2155
2176
2172
2166
2145
2108
2085
2098
2066
2033
1998
1975
1938
1910
1884
1862
1841
1879
1916
1925
1978
1963
1951
1954
1928
1919
1948
1957
1964
2001
2051
2101
2174
2216
2201
2172
2128
2079
2036
1996
1980
1964
2003
1982
2028
2050
2055
2063
2081
2120
2047
2038
2022
2005
1956
1926
1908
1904
1907
1931
1930
1964
1976
2011
2017
2052
2096
2155
2228
2270
2279
2264
2228
2178
2121
2049
1953
1937
1926
1909
1969
1933
1958
1942
1941
1952
1942
1952
1967
1992
2037
2039
2121
2173
2220
2243
2230
2226
2191
2164
2155
2128
2146
2088
2094
2079
2068
2038
2018
1963
1904
1865
1821
1785
1766
1765
1733
1729
1740
1782
1788
1823
1833
1883
1911
1955
2024
2046
2049
2041
2052
2054
2099
2097
2135
2176
2169
2209
2134
2133
2107
2083
2067
2063
2085
2064
2065
2055
2058
2031
1978
1928
1897
1893
1892
1895
1963
1963
1978
1979
1990
2025
2025
2030
2035
2046
2075
2055
2048
2042
2047
2025
2012
1991
1994
1985
1994
1934
1932
1928
1922
1911
1933
1988
2014
2056
2081
2121
2125
2153
2184
2207
2215
2214
2207
2142
2083
2043
2001
1987
1972
1910
1897
1903
1895
1932
1995
2070
2200
2337
2506
2654
2812
2962
3066
3174
3280
3362
3411
3432
3454
3365
3203
3024
2816
2567
2285
2024
1741
1443
1143
872
605
417
183
95
1
0
40
131
236
f1
517
639
856
1032
1208
1390
1558
1727
1872
2003
2111
2206
2263
2486
2369
2393
2403
2433
2499
2522
2547
2575
2587
2588
2592
2567
2524
2478
2392
2322
2292
2235
2226
2194
2189
2188
2167
2151
2162
2145
2144
2131
2130
2128
2124
2094
2072
2062
2076
2092
2120
2131
2128
2095
2092
2046
2011
1984
1959
1969
1983
1975
1999
1989
2011
2016
2053
2045
2048
2074
2050
2096
2042
2039
2024
2002
2212
2049
2115
2196
2226
2260
2250
2143
2052
1943
1889
1811
1754
1839
1719
1754
1810
1887
1977
2043
2133
2179
2211
2238
2248
2235
2230
2205
2197
2181
2161
2134
2150
2142
2127
2099
2088
2086
2080
2067
2075
2062
2051
2041
2036
2021
1986
1990
1998
2010
2076
2055
2077
2108
2120
2105
2105
2108
2102
2101
2101
2061
2073
2047
2016
1974
1931
1900
1902
1879
1927
1916
1946
1967
1969
1984
1991
1986
1957
1927
1887
1843
1808
1835
1787
1799
1809
1824
1818
1800
1791
1773
1755
1737
1724
1700
1661
1603
1591
1599
1654
1721
1776
1855
1942
2013
2052
2115
2095
2104
2098
2055
2032
2016
2016
1995
2026
2007
1971
1951
1976
1963
1977
2038
2024
2037
2044
2031
2016
2024
2014
2012
2050
2096
2094
2141
2152
2214
2199
2251
2249
2222
2200
2167
2144
2101
2104
2060
2077
2085
2092
2104
2122
2134
2095
2093
2105
2119
2158
2170
2179
2182
2201
2156
2122
2205
2063
2016
1948
1905
1884
1860
1841
1848
1888
1907
1927
1971
1982
1999
2047
2050
2073
2058
2078
2066
2086
2055
2068
2077
2074
2084
2093
2102
2117
2139
2134
2143
2137
2142
2143
2124
2111
2098
2096
2047
2025
2006
2007
1995
2010
2023
2025
2027
2037
2037
1995
1979
1927
1877
1862
1863
1858
1851
1844
1851
1874
1887
1897
1938
1953
2020
2041
2096
2137
2128
2129
2133
2131
2108
2149
2172
2172
2146
2121
2100
2076
2048
2012
1975
1948
1920
1935
1929
1951
1995
1999
2018
2060
2062
2094
2120
2140
2131
2108
2080
2043
2034
2003
1951
1940
1885
1909
1856
1860
1872
1881
1908
1886
1992
2030
2082
2117
2123
2125
2124
2115
2064
2034
2034
2013
2002
1995
1990
1995
2016
2013
2018
2026
2026
2033
2047
2071
2259
2116
2114
2116
2086
2055
2026
1988
1968
1938
1939
1939
1952
1967
1954
1968
1985
2007
2021
2032
2006
1987
1958
1922
1915
1919
1912
1915
1900
1898
1950
2001
2020
2043
2053
2072
2069
2079
2071
2047
2034
2014
2008
2015
2054
2081
2111
2130
2139
2142
2143
2078
2073
2050
2019
2011
2011
2030
2062
2083
2113
2139
2115
2094
2061
2003
1969
1935
1958
1888
1896
1917
1951
1971
2016
2055
2078
2076
2093
2090
2083
2064
2039
2019
1982
1986
1949
1929
1943
1958
1958
1968
1990
2007
2038
2062
2054
2048
2025
2035
2025
2025
2128
2038
2043
2049
2051
2035
2003
1989
1961
1947
1938
1945
1953
1977
2009
2060
2083
2090
2079
2052
2027
2013
2002
1994
2011
2012
1987
2022
2020
2035
2029
2003
1986
2142
1991
2007
2007
2027
2000
2005
2030
2191
2055
2083
2123
2128
2145
2140
2123
2111
2083
2050
2045
2026
2015
2031
2037
2011
2015
2032
2148
2067
2064
2066
2039
2026
2032
2015
2063
2067
2070
2087
2131
2131
2129
2191
2127
2111
2047
2000
1955
1870
1835
1810
1806
1815
1839
1839
1830
1826
1836
1823
1822
1844
1831
1834
1880
1878
1911
1962
2026
2071
2108
2127
2125
2142
2146
2153
2113
2045
2010
1988
1977
1980
1986
2045
2103
2155
2220
2220
2240
2171
2150
2099
2060
2053
2028
2060
2048
2047
2066
2057
2074
2072
2071
2050
2063
2024
2037
2034
2005
2017
2007
1994
1987
1950
1933
1874
1884
1835
1815
1834
1869
1867
1879
1906
1936
1975
2012
2072
2120
2171
2209
2256
2268
2257
2203
2178
2120
2031
1987
1948
1911
1921
1919
1928
1943
1992
2080
2130
2246
2353
2462
2582
2685
2757
2892
3032
3125
3197
3252
3257
3226
3146
3040
2885
2695
2459
2191
1868
1568
1220
913
661
468
323
256
214
230
279
373
473
608
719
860
971
1129
1248
1377
1534
1675
1811
1927
2060
2167
2251
2345
2407
2459
2520
2585
2595
2649
2641
2634
2627
2608
2584
2546
2483
2423
2372
2302
2285
2257
2240
2211
2196
2175
2147
2129
2119
2118
2091
2068
2079
2041
2036
2059
2035
2051
2050
2026
2009
1991
1958
1942
1896
1877
1880
1870
1962
1930
1956
1997
2045
2105
2100
2125
2138
2128
2119
2091
2084
2075
2079
2092
2124
2161
2198
2223
2209
2191
2199
2177
2151
2130
2067
2057
2018
1961
1923
1859
1811
1787
1795
1811
1822
1882
1911
1976
2047
2065
2126
2158
2195
2256
2229
2405
2230
2195
2152
2129
2120
2096
2055
2035
2034
2085
2084
2100
2123
2142
2160
2179
2188
2168
2160
2095
2053
2019
1974
1951
1939
1908
1860
1824
1784
1777
1791
1836
1893
1908
1913
1905
1905
1904
1901
1895
1911
1937
1951
1972
1987
2007
2022
2064
2071
2115
2119
2118
2086
2051
1979
1937
1904
1849
1804
1792
1777
1718
1809
1712
1657
1643
1621
1623
1603
1635
1703
1753
1850
1908
1919
1957
1982
1980
1963
1975
1958
1951
2013
2016
2038
2039
2056
2044
2017
2028
2059
2040
2024
2029
2014
2003
2043
2055
2073
2091
2099
2123
2112
2094
2099
2107
2136
2141
2150
2159
2175
2223
2303
2259
2311
2261
2230
2198
2146
2120
2099
2090
2080
2066
2065
2086
2094
2120
2118
2108
2081
2043
2046
2048
1967
1948
1951
1959
1978
1973
1972
1979
2003
2031
2018
2021
2024
2020
2008
2025
2048
2091
2115
2163
2120
2130
2093
2035
2030
1985
1964
1958
1979
1996
2019
2026
2023
2020
2044
2034
2094
2076
2084
2083
2119
2132
2121
2115
2058
1999
1933
1886
1860
1855
1868
1893
1917
1967
1986
2028
2065
2120
2135
2178
2200
2198
2207
2205
2180
2166
2188
2158
2155
2138
2103
2105
2091
2072
2061
2048
2005
1997
1927
1823
1772
1697
1673
1700
1717
1735
1765
1840
1899
1965
2021
2079
2166
2141
2164
2176
2187
2187
2195
2204
2205
2210
2154
2078
2014
1953
1913
1870
1836
1827
1803
1807
1798
1817
1872
1888
1954
2000
2045
2094
2110
2117
2114
2099
2127
2095
2127
2167
2165
2191
2192
2124
2066
1996
1924
1874
1847
1830
1849
1882
1915
1945
2023
2049
2068
2079
2114
2137
2145
2180
2195
2185
2167
2135
2104
2057
2014
1950
1905
1875
1844
1897
1861
1871
1840
1840
1841
1856
1859
1896
1927
1973
2009
2070
2083
2079
2090
2095
2096
2143
2196
2197
2273
2336
2245
2240
2219
2218
2181
2137
2051
2069
2051
2084
2090
2116
2092
2047
2002
1962
1911
1897
1841
1827
1834
1831
1859
1870
1886
1873
1860
1829
1819
1859
1878
1922
1955
1972
1971
2008
2034
2024
2020
2020
2033
2052
2052
2089
2118
2151
2174
2170
2151
2150
2157
2135
2158
2162
2188
2183
2166
2181
2147
2135
2122
2108
2062
2018
1958
1894
1855
1846
1855
1862
1879
1954
2020
2043
2045
2035
2014
1974
1958
1960
2012
2043
2087
2135
2174
2164
2155
2144
2118
2128
2108
2085
2092
2056
2022
2007
1972
2036
1978
1960
1931
1917
1911
1929
1966
2015
2047
2037
2049
2121
2091
2079
2098
2131
2104
2094
2070
2043
2041
2009
1982
1982
1888
1856
1803
1757
1744
1768
1769
1775
1804
1834
1860
1863
1912
2022
1935
1942
1972
1998
2055
2113
2181
2200
2223
2207
2203
2211
2194
2170
2146
2091
2048
1986
1951
1919
1910
1919
1987
2000
2046
2091
2084
2081
2047
2123
2023
2007
2001
2004
2013
2026
2007
2018
2049
2036
2034
2015
2042
2076
2079
2157
2151
2136
2094
2055
2012
1967
1956
1943
1950
1935
1929
1928
2115
2000
2004
2029
2053
2087
2137
2246
2209
2226
2232
2215
2198
2170
2118
2094
2045
2019
2006
2013
2027
2084
2132
2186
2250
2306
2367
2435
2528
2616
2708
2793
2872
2951
3039
3054
3065
3039
2979
2876
2711
2582
2292
2007
1731
1436
1158
912
706
531
404
351
328
349
422
506
591
687
757
869
1008
1171
1318
1472
1656
1818
1989
2149
2270
2356
2453
2526
2536
2535
2528
2518
2483
2475
2464
2419
2402
2370
2367
2359
2359
2355
2338
2241
2231
2179
2127
2111
2112
2129
2123
2121
2120
2112
2100
2067
2060
2049
2039
2035
2013
2032
2032
2012
1980
1974
1973
2002
2035
2048
2067
2081
2100
2110
2115
2103
2104
2110
2107
2098
2106
2130
2113
2120
2091
2068
2031
2022
2013
2012
2007
2018
2036
2039
2050
2056
2079
2128
2143
2183
2209
2215
2214
2224
2192
2146
2075
1993
1890
1808
1755
1687
1666
1662
1680
1748
1795
1864
1903
1985
2045
2147
2173
2212
2213
2213
2209
2211
2197
2213
2231
2255
2310
2310
2345
2384
2351
2312
2241
2197
2096
2043
1996
1959
1921
1884
1851
1829
1822
1819
1858
1870
1919
1907
1914
1927
1935
1953
1951
1977
2031
2089
2147
2207
2271
2292
2296
2247
2152
2062
1979
1858
1759
1696
1648
1629
1602
1615
1596
1621
1643
1680
1688
1719
1730
1751
1767
1819
1807
1813
1808
1841
1850
1851
1880
1874
1899
1872
1858
1853
1843
1833
1850
1860
1882
1881
1867
1887
1904
1935
1955
2024
2089
2150
2195
2222
2263
2275
2305
2320
2298
2316
2298
2271
2262
2255
2268
2258
2231
2248
2243
2243
2214
2209
2208
2207
2224
2215
2207
2184
2145
2111
2083
2071
2060
2039
2026
1979
1957
1904
1886
1860
1831
1836
1855
1834
1838
1847
1827
1845
1840
1876
1926
1970
2010
2040
2081
2066
2080
2074
2072
2090
2079
2110
2101
2190
2119
2114
2135
2125
2144
2123
2123
2117
2103
2112
2129
2131
2130
2131
2231
2098
2091
2073
2063
2063
2045
2037
2024
2011
1974
1940
1960
1875
1921
1888
1906
1878
1878
1900
1922
1962
1980
2008
2050
2069
2112
2101
2121
2112
2086
2059
2039
2024
2008
2018
2024
2030
2070
2096
2101
2087
2054
2035
2011
2014
2006
2024
2044
2062
2096
2103
2108
2100
2063
2047
2047
2042
2026
2025
2023
2037
2022
2004
2003
1948
1923
1907
1917
1936
1967
1985
1992
1978
1962
1927
1895
1910
1954
1986
2032
2059
2104
2105
2107
2091
2113
2111
2098
2102
2097
2104
2092
2061
2104
2068
2059
2068
2052
2045
2021
1995
1948
1887
1891
1884
1874
1865
1886
1932
1929
1955
1982
1968
1968
1947
1975
1952
2011
1950
1937
1967
1993
2040
2085
2114
2144
2190
2201
2173
2159
2142
2077
2060
2044
1991
1992
1985
1992
2011
2043
2065
2092
2092
2108
2088
2059
2040
2028
2031
2055
2062
2080
2071
2065
2167
2058
2033
2022
2023
2001
2013
1991
2020
2007
2046
2056
2078
2083
2081
2070
2095
2001
1987
1988
1989
1954
1975
1950
1917
1902
1887
1888
1894
1909
1900
1873
1903
1938
1997
2034
2051
2084
2108
2121
2090
2055
2050
2017
2009
2032
2064
2085
2089
2086
2099
2115
2117
2099
2093
2105
2082
2067
2072
2047
2058
2048
2063
2086
2063
2045
2047
2034
2009
2007
2012
2041
2031
2030
1997
1994
1963
1935
1906
1911
1919
1977
1977
1995
2019
2060
2079
2079
2047
2018
1969
1963
1974
1960
1984
2012
2021
2010
2046
2055
2063
2070
2040
2038
2055
2033
2055
2048
2071
2111
2146
2157
2190
2219
2180
2146
2128
2102
2079
2055
2035
2019
1968
1927
1938
1926
1929
1936
1928
1928
1903
1902
1897
1893
1924
1932
1984
1990
1997
2015
2020
2029
2000
2006
1968
1928
1911
1907
1908
1905
1907
1915
1922
1950
1945
1986
2039
2087
2124
2156
2154
2133
2153
2128
2104
2098
2070
2059
2131
2053
2039
2043
2032
2031
2042
2032
2039
2009
1995
1983
1951
1944
1938
1943
1958
1960
1960
1943
1963
1966
1972
1970
1946
1937
1949
1975
1983
2023
2031
2045
2021
2016
2011
1985
1951
1951
1959
1966
1983
1973
2016
2035
2087
2122
2168
2183
2231
2270
2287
2288
2261
2241
2198
2183
2114
2099
2056
2030
1991
1988
1959
1963
1943
1974
2004
2033
2068
2144
2280
2391
2523
2638
2744
2899
2993
3060
3151
3290
3233
3236
3175
3102
2959
2787
2551
2247
1917
1572
1262
1004
704
471
318
197
150
143
159
243
357
477
638
767
944
1097
1248
1383
1520
1659
1792
1907
1993
2057
2088
2155
2130
2180
2247
2312
2374
2432
2459
2478
2483
2500
2513
2530
2543
2547
2536
2554
2559
2566
2528
2501
2455
2396
2331
2258
2207
2102
2026
1951
1876
1839
1828
1841
1874
1871
1904
1930
1998
2027
2077
2112
2130
2151
2169
2182
2194
2239
2219
2208
2184
2175
2144
2098
2070
2031
2007
1990
1967
1939
1931
1946
1931
1901
1924
1925
1936
1956
1983
2048
2071
2066
2097
2121
2131
2139
2154
2160
2153
2184
2132
2110
2083
2055
2030
2023
1998
1973
1948
1926
1910
1915
1914
1925
1939
1936
1924
1936
1959
1985
2019
2071
2135
2144
2183
2185
2217
2244
2279
2304
2299
2268
2252
2222
2187
2149
2122
2080
2073
2071
2059
2039
2031
1999
1983
1972
1932
1936
1923
1902
1908
1902
1900
1921
1916
1940
1956
1961
2007
2009
1999
1958
1905
1873
1846
1795
1783
1783
1820
1790
1803
1827
1839
1853
1879
1873
1872
1910
1861
1889
1888
1890
1879
1913
1924
1917
1926
1909
1905
1871
1843
1831
1820
1815
1870
1845
1828
1904
1964
1951
1974
1962
1948
1962
1966
1978
1994
2034
2028
2072
2039
2042
2044
2016
2003
2044
2076
2093
2127
2132
2176
2136
2117
2091
2136
2180
2193
2224
2240
2237
2243
2286
2235
2239
2258
2217
2201
2146
2087
2045
2019
1979
1975
1942
1935
1963
1953
1977
2002
2021
2047
2080
2123
2184
2184
2208
2210
2180
2140
2068
2093
2030
2009
2006
1958
1953
1956
1927
1911
1850
1833
1836
1872
1880
1930
1982
2029
2076
2103
2134
2125
2126
2171
2137
2167
2158
2145
2135
2121
2136
2099
2137
2140
2135
2148
2126
2104
2049
2003
1957
1908
1862
1819
1791
1853
1885
2040
1951
1979
2011
2021
2092
2064
2063
2091
2072
2051
2055
2043
2062
2025
2035
2047
2056
2036
2037
2074
2064
2048
2012
1963
1914
1878
1917
1897
1917
1938
1969
1975
2055
2114
2168
2178
2202
2205
2198
2143
2111
2064
2017
1982
1962
1979
1941
1936
1927
1942
1967
2006
2020
2019
2003
2014
2028
2069
2117
2119
2148
2144
2189
2136
2130
2108
2095
2044
2008
1971
1931
1912
1869
1839
1825
1807
1779
1824
1814
1894
1887
1912
1940
1977
2009
2054
2112
2145
2159
2172
2200
2199
2211
2202
2177
2139
2145
2111
2072
2039
1988
1927
1904
1871
1871
1914
1951
1997
2040
2068
2112
2085
2083
2087
2075
2072
2084
2087
2071
2047
2044
2014
1990
1990
1937
1970
1977
2006
2019
2027
2015
2014
2012
2026
2040
2028
2007
2032
1991
1972
1988
1948
1922
1923
1933
1945
1969
2047
2039
2023
2018
2027
2033
2036
2030
2046
2053
2059
2062
2069
2070
2087
2128
2128
2152
2145
2127
2089
2014
1971
1911
1870
1877
1850
1888
1862
1924
1978
2011
2055
2075
2112
2150
2175
2190
2180
2159
2147
2091
2047
2015
1999
1966
1944
1940
1896
1882
1860
1832
1811
1808
1822
1848
1887
1936
1983
2026
2076
2123
2207
2266
2311
2341
2322
2284
2211
2171
2125
2075
2051
2003
1985
1950
1917
1900
1902
1890
1824
1822
1823
1835
1857
1883
1914
1955
1942
1999
2032
2032
2046
2043
2067
2128
2171
2183
2183
2230
2198
2151
2102
2064
2038
2002
1970
1943
1893
1868
1848
1855
1879
1896
1924
1979
2018
2047
2059
2100
2113
2126
2170
2190
2238
2264
2285
2267
2228
2168
2095
2021
1959
1913
1916
1857
1837
1854
1863
1892
1867
1903
1960
1987
2010
2039
2054
2082
2048
2008
1977
1932
1882
1826
1792
1792
1809
1800
1879
1861
1883
1917
1952
1985
2002
1996
2007
2036
2058
2074
2101
2135
2188
2207
2205
2162
2124
2060
2040
2002
1969
1951
1936
1959
1956
1970
2000
2039
2098
2157
2190
2198
2195
2131
2069
2024
1973
1933
1898
1928
1906
1952
1984
2045
2096
2135
2161
2162
2155
2153
2143
2105
2079
2053
2007
1962
1954
1959
1999
2059
2108
2177
2193
2147
2070
2012
1933
1864
1818
1792
1770
1776
1760
1763
1784
1822
1866
1920
1999
2063
2163
2276
2384
2495
2632
2770
2878
2950
3027
3076
3124
3161
3197
3208
3205
3172
3129
3055
2928
2760
2573
2333
2042
1776
1452
1146
891
683
501
344
245
198
172
170
207
303
405
539
673
801
932
c5
1253
1415
1556
1696
1792
1896
2013
2142
2263
2367
2468
2540
2594
2631
2655
2657
2647
2607
2570
2563
2527
2490
2477
2460
2443
2399
2360
2329
2287
2270
2233
2187
2167
2145
2139
2136
2160
2166
2147
2135
2093
2064
2015
1969
1955
1935
1939
1958
1996
2087
2070
2101
2131
2139
2127
2124
2074
2042
2041
2008
1995
1990
2001
2042
2047
2112
2156
2164
2142
2123
2066
2018
2000
1984
1942
1960
1986
1979
1992
1995
2003
2010
2018
2044
2081
2108
2129
2171
2178
2175
2151
2131
2095
2090
2111
2102
2064
2039
2025
2019
2034
2035
2055
2007
2022
1983
1930
1900
1901
1927
1963
2006
2048
2115
2178
2220
2256
2258
2246
2214
2182
2169
2161
2151
2135
2131
2130
2098
2116
2063
2023
1976
1914
1898
1896
1897
1898
1898
1923
1948
1987
1984
1962
1948
1927
1920
1914
1895
1904
1927
1941
1942
1962
1933
1903
1888
1873
1870
1862
1908
1897
1905
1910
1884
1887
1862
1822
1790
1801
1784
1769
1777
1775
1767
1751
1751
1731
1729
1744
1730
1726
1743
1800
1823
1871
1924
1972
2002
2001
2006
2000
1990
1992
1987
2005
2041
2088
2121
2178
2172
2302
2291
2344
2359
2361
2353
2335
2294
2276
2257
2250
2243
2264
2257
2220
2162
2135
2109
2109
2081
2061
2035
2020
1953
1936
1920
1888
1894
1913
1944
1968
1977
1992
2008
2022
2039
2035
2036
2038
2035
2143
2045
2033
2020
2017
2003
2003
1968
1940
1915
1924
1924
1963
1989
2022
2065
2116
2152
2195
2216
2220
2232
2217
2202
2171
2119
2094
2060
2011
1959
1923
1903
1911
1922
1932
1931
1943
1941
1950
2013
1947
1923
1928
1911
1919
1942
1959
1991
2022
2044
2058
2076
2119
2149
2183
2168
2190
2187
2222
2240
2251
2240
2192
2134
2067
2039
2004
1968
1948
1940
1923
1928
1942
1988
2005
2023
2055
2058
2055
2043
2044
2025
2035
1980
1989
1955
1951
1959
1977
1984
1996
2038
2025
2073
2096
2100
2086
2058
2041
2022
2014
1968
1935
1902
1887
1879
1895
1902
1940
1944
1971
1975
1986
2007
2035
2023
2020
2034
1966
1927
1916
1938
1944
1962
2007
2022
2043
2084
2139
2132
2147
2176
2171
2173
2166
2158
2126
2094
2066
2029
2034
2014
1998
1986
1986
1985
2004
1964
1965
1952
1948
1973
1975
1998
2015
2034
2046
2026
2036
2033
2008
1971
1976
1975
1979
2051
2097
2176
2215
2223
2245
2255
2208
2179
2136
2079
2054
2039
2034
2081
2005
2001
1978
1976
1973
1986
2030
1986
1975
1968
1918
1907
1896
1854
2047
1885
1904
1904
1924
1958
1984
1993
2016
2047
2050
2086
2070
2004
2004
1947
1925
1895
1890
1944
1953
1952
1978
1985
1991
2014
2004
1995
2000
2006
2018
2064
2047
2104
2133
2192
2208
2207
2204
2182
2207
2141
2112
2071
2047
2015
1998
1960
1925
1938
1940
1926
1947
1966
2009
2025
2047
2061
2082
2110
2086
2076
2049
2027
2025
2019
2032
2027
2016
2035
2023
2026
2024
2044
2114
2072
2055
2060
2048
2060
2072
2089
2108
2117
2129
2117
2096
2071
2014
1962
1919
1851
1816
1815
1830
1880
1920
1959
2110
2022
2054
2019
2007
1989
1993
1995
1996
2009
2033
2046
2067
2082
2140
2132
2172
2153
2156
2139
2134
2148
2151
2119
2135
2123
2144
2131
2106
2074
2047
1983
1934
1890
1831
1831
1794
1818
1805
1848
1896
1978
2035
2094
2112
2102
2046
1972
1924
1862
1822
1808
1804
1819
1823
1850
1867
1902
1929
1970
2023
2067
2164
2200
2239
2261
2247
2213
2153
2109
2083
2063
2047
2041
2028
1992
1984
1965
1972
1972
1991
1975
1995
2032
2047
2083
2119
2147
2180
2155
2126
2103
2062
2041
2000
1966
1936
1914
1907
1899
1908
1924
1938
1952
1982
2046
2070
2120
2176
2216
2245
2247
2134
2189
2111
2098
2071
2054
2033
1980
1938
1898
1844
1802
1784
1807
1851
1913
2038
2133
2271
2430
2578
2691
2801
2914
2976
3067
3104
3154
3150
3155
3104
3033
2960
2833
2624
2431
2151
1863
1551
1303
1039
799
612
474
382
347
336
356
389
456
552
651
783
930
1122
1295
1471
1627
1759
1888
2002
2078
2169
2300
2354
2415
2468
2504
2530
2534
2538
2564
2543
2528
2521
2445
2388
2320
2263
2256
2240
2239
2240
2272
2306
2318
2325
2311
2257
2231
2183
2162
2104
2075
2030
2044
2006
1976
1968
1949
1979
1957
1983
1996
2040
2106
2149
2192
2193
2148
2088
2040
2030
1963
1955
1954
1978
2036
2036
2102
2158
2163
2159
2142
2107
2062
2024
1986
1965
1961
1991
1995
2023
2027
2051
2049
2030
2016
2008
1984
1978
1974
1967
1962
2071
1983
1979
1999
1999
2001
1984
1975
1967
1964
1966
2008
2038
2091
2120
2170
2198
2242
2256
2250
2240
2199
2173
2173
2143
2124
2130
2158
2114
2097
2108
2104
2096
2073
2052
2019
1994
1974
1941
1932
1935
1953
1979
2027
2065
2065
2096
2098
2078
2047
1968
1921
1857
1847
1794
1817
1824
1867
1896
1899
1906
2059
1911
1932
1927
1935
1958
1924
1920
1919
1903
1895
1929
1932
1898
1891
1839
1809
1760
1707
1680
1681
1680
1730
1767
1835
1880
1901
1887
1900
1892
1903
1885
1879
1904
1911
1924
1989
1981
2024
2023
2090
2137
2249
2224
2251
2246
2235
2204
2172
2118
2102
2106
2071
2078
2083
2088
2067
2080
2088
2099
2113
2093
2084
2067
2042
2048
2035
2087
2091
2108
2111
2143
2153
2173
2191
2174
2151
2103
2046
1995
1956
1934
1936
1931
1944
1976
2019
2063
2108
2146
2206
2207
2168
2158
2134
2088
2087
2063
2062
2085
2091
2080
2083
2073
2040
2034
2031
2017
2000
1986
1984
1995
1994
2006
2003
1990
1964
1942
1886
1825
1807
1813
1827
1871
1904
1963
2007
2045
2064
2073
2097
2083
2087
2075
2075
2075
2094
2090
2066
2102
2134
2132
2150
2149
2150
2135
2122
2107
2053
2027
2044
2048
2046
2102
2045
2063
2049
2064
2071
2092
2093
2105
2103
2097
2061
2047
2031
2000
1972
1972
1947
1967
1982
2018
2032
2043
1999
2000
1980
1948
1941
1932
1941
1928
1936
1980
1927
1926
1930
1936
1934
1938
1931
1920
1936
1940
1937
1954
1987
2070
2081
2088
2096
2097
2155
2191
2213
2219
2207
2199
2196
2165
2156
2155
2166
2151
2137
2116
2088
2071
2039
2032
1992
1968
1938
1914
1843
1823
1824
1859
1884
1852
1888
1891
1947
1971
1992
2009
2028
2042
2043
2027
2009
2000
1995
1975
1966
2003
2012
2015
2046
2078
2094
2098
2126
2116
2093
2078
2056
2050
2047
2037
2017
1988
1972
1985
1976
1984
2024
2017
2018
2032
2049
2055
2070
2078
2071
2067
2066
2048
2048
2015
1986
1989
1976
1978
2004
2018
2034
2035
2036
2011
1993
1954
1943
1924
1941
1935
1918
1939
1950
2008
2013
2036
2048
2065
2049
2047
2054
2065
2061
2047
2029
2026
2027
2022
2025
2041
2038
2066
2084
2071
2070
2043
2042
2039
2059
2108
2123
2127
2131
2119
2095
2033
1991
1935
1911
1923
1914
1937
1957
2014
2020
2047
2089
2136
2119
2106
2085
2055
2039
2017
2001
2000
2010
2015
1983
2004
2037
2067
2095
2127
2147
2158
2168
2093
2057
2031
2017
2002
2006
1979
1979
1951
1949
1955
1975
2007
1982
1979
1975
1990
1993
1996
2047
2046
2050
2064
2067
2066
2069
2054
2023
2020
2013
1991
2008
1952
1939
1927
1915
1926
1963
1962
1964
1959
1987
1979
1971
1973
1978
2009
1983
1998
1971
1964
1935
1895
1864
1844
1809
1819
1857
1863
1919
1935
1956
1956
1987
2018
2048
2084
2122
2132
2146
2151
2184
2181
2199
2212
2178
2166
2171
2174
2164
2153
2152
2180
2128
2134
2093
2082
2082
2057
2056
2052
2042
2056
2043
2051
2093
2067
2064
2048
2017
2050
2125
2055
2052
2076
2037
2002
1951
1920
1891
1882
1899
1911
1911
1888
1881
1877
1902
1863
1867
1878
1904
1949
2013
2061
2131
2234
2347
2575
2593
2748
2834
2952
3041
3107
3179
3207
3231
3245
3222
3159
3057
2920
2674
2384
2087
1785
1458
1169
909
683
523
392
319
284
270
316
356
445
546
654
792
945
1074
1221
1372
1522
1646
1805
1936
2050
2167
2267
2364
2443
2497
2502
2529
2487
2501
2522
2522
2502
2481
2455
2432
2440
2398
2386
2362
2332
2306
2257
2262
2218
2188
2203
2232
2254
2268
2269
2260
2246
2204
2168
2147
2111
2072
2049
2047
2039
2029
2024
2039
1999
1986
1951
1935
1943
1930
1940
1978
2022
2112
2159
2172
2187
2181
2151
2128
2077
2006
1974
1918
1872
1843
1828
1822
1845
1869
1904
1918
1976
1999
2031
2055
2055
2065
2071
2062
2069
2074
2096
2185
2220
2219
2206
2151
2097
2011
1979
1910
1876
1863
1885
1926
1966
2015
2054
2097
2126
2130
2165
2164
2170
2188
2183
2173
2195
2143
2116
2092
2095
2084
2096
2105
2102
2079
2013
1981
1928
1922
1980
1927
1970
2015
2129
2093
2115
2129
2120
2115
2101
2108
2083
2079
2082
2029
2013
1936
1890
1830
1794
1775
1752
1744
1763
1743
1767
1808
1869
1876
1879
1897
1941
1928
1935
1946
1951
1968
1965
1950
1919
1890
1844
1795
1695
1656
1635
1641
1682
1687
1711
1750
1807
1836
1866
1895
1919
1936
1948
1984
2003
2078
2078
2111
2138
2162
2153
2192
2152
2140
2147
2171
2191
2226
2220
2172
2146
2128
2091
2077
2051
2012
1992
1959
1945
1920
1991
2071
2113
2152
2214
2184
2214
2191
2191
2242
2236
2219
2183
2158
2139
2128
2122
2091
2111
2114
2112
2122
2107
2061
2042
2030
2018
2025
1982
1975
1976
1967
1980
1990
1939
1917
1886
1887
1920
1931
1942
1943
1943
1969
2004
2048
2076
2087
2108
2088
2084
2069
2077
2095
2079
2099
2104
2115
2123
2103
2122
2088
2062
2051
2047
2032
2005
1979
1964
1935
1909
1937
1940
1949
1979
2024
2016
2025
2017
2003
2014
1992
2027
2060
2092
2079
2096
2118
2091
2087
2083
2083
2088
2107
2106
2104
2132
2151
2107
2063
1991
1925
1912
1899
1934
1939
1971
1991
2010
2026
2023
2044
2068
2055
2044
2044
2015
2014
2011
2015
2032
2052
2071
2075
2058
2080
2100
2108
2137
2080
2021
1936
1879
1852
1814
1818
1823
1859
1879
1898
1915
1943
1984
2011
2035
2086
2091
2119
2137
2105
2099
2093
2087
2102
2099
2101
2118
2149
2106
2085
2032
2004
1981
1974
1979
1980
2005
2011
2035
2049
2055
2082
2089
2112
2091
2093
2080
2064
2083
2070
2038
2023
1992
1984
1985
1967
1960
1950
1959
1980
1988
2000
2033
2057
2071
2079
2031
2067
2048
2017
1986
1952
1927
1914
1921
1968
2019
2088
2108
2117
2096
2101
2082
2095
2094
2091
2081
2073
2070
2047
2034
2020
2003
1968
1927
2007
1896
1893
1888
1903
1916
1965
1988
2004
2034
2039
2053
2091
2103
2094
2067
2057
2062
2063
2055
2058
2049
2047
2011
1975
1937
1958
1968
2008
2039
2061
2072
2058
2056
2034
2021
2020
2028
2027
2027
2012
1994
1976
1984
1953
1943
1921
1918
1925
1950
1968
1999
2030
2039
2046
2040
2066
2029
2002
1967
1981
1982
1988
2000
2017
2035
2063
2108
2152
2172
2178
2172
2177
2162
2134
2104
2098
2094
2063
2048
2030
2001
1994
1996
1971
1959
1968
2002
1996
1988
1984
1970
1984
1990
1984
1993
1995
2070
2060
2110
2159
2131
2143
2136
2150
2106
2054
2047
2039
2048
2008
1995
1966
1914
1903
1910
1903
1917
1914
1907
1936
1944
1969
1981
1999
2018
1967
1955
1940
1938
1927
1932
1947
1948
1966
1979
2006
2020
2024
2040
2046
2061
2047
2048
2054
2041
2016
2029
2022
2022
2019
2026
1991
1986
1970
1968
1982
1998
2004
2032
2026
2035
2047
2066
2052
2056
2054
2048
2066
2097
2119
2160
2165
2184
2175
2153
2147
2142
2166
2132
2119
2080
2046
2042
2033
2030
2043
2068
2086
2089
2102
2090
2063
2030
2007
1970
1956
1976
1991
2024
2041
2051
2039
1989
1951
1898
1873
1838
1841
1862
1888
1930
1991
2078
2182
2265
2379
2480
2579
2696
2809
2923
3056
3188
3331
3478
3552
3601
3406
3207
2956
2677
2353
2005
1666
1312
1000
707
484
266
131
54
51
48
111
194
276
366
523
684
857
1066
1263
1478
1652
1869
2060
2224
2381
2479
2531
2543
2515
2483
2430
2393
2355
2325
2331
2328
2351
2382
2373
2377
2536
2360
2454
2274
2231
2176
2152
2170
2194
2240
2271
2300
2309
2306
2271
2268
2194
2152
2114
2077
2081
2075
2047
2035
2035
2072
2034
2040
2008
2015
2000
1991
1991
2000
1998
2010
2023
2057
2092
2132
2267
2241
2250
2232
2191
2142
2069
2008
1953
1912
1911
1911
1902
1908
1937
1980
1949
1954
1980
1998
2043
2160
2185
2224
2211
2167
2097
2000
1911
1880
1823
1825
1853
1894
1931
1954
1995
2026
2062
2095
2180
2150
2150
2135
2145
2125
2153
2195
2219
2274
2279
2305
2273
2296
2288
2290
2298
2264
2248
2203
2176
2145
2178
2079
2018
1921
1872
1769
1742
1712
1728
1755
1792
1826
1869
1911
1954
2004
2039
2084
2073
2096
2080
2047
2021
1984
1926
1855
1795
1772
1742
1732
1726
1719
1735
1787
1774
1795
1800
1835
1847
1882
1933
1930
1918
1941
1940
1959
1951
1941
1937
1946
1941
1950
1941
1935
1919
1903
1924
1902
1944
1954
1955
1926
1906
1842
1776
1742
1724
1795
1857
1917
1971
2032
2101
2152
2171
2196
2218
2227
2228
2227
2250
2278
2249
2244
2222
2181
2181
2133
2089
2081
2051
2035
2047
2069
2118
2136
2186
2221
2244
2258
2269
2259
2265
2229
2219
2175
2166
2120
2086
2094
2082
2050
2027
1994
1961
1948
1929
1904
1896
1881
1899
1908
1911
1894
1885
1881
1910
1938
1976
1985
2000
2008
2015
2027
2031
2027
2032
2047
2074
2094
2143
2139
2188
2199
2215
2201
2155
2100
2039
1954
1926
1893
1921
1936
1926
1960
1951
1955
1948
1950
1968
1974
1995
2039
2054
2061
2070
2094
2192
2225
2240
2284
2279
2272
2191
2019
1989
1969
1910
1881
1872
1861
1888
1886
1874
1930
1901
1974
2002
2009
2023
2043
2024
1970
1960
1953
1952
1956
1978
1978
2008
2022
2076
2112
2144
2151
2159
2155
2147
2162
2150
2135
2087
2058
2023
2144
1919
1933
1901
1872
1875
1918
1912
1933
1970
2024
2066
2091
2132
2143
2142
2156
2141
2138
2134
2136
2136
2142
2109
2113
2103
2112
2114
2109
2061
1992
1934
1879
1824
1775
1762
1732
1738
1768
1802
1875
1919
2009
2042
2055
2052
2070
2099
2097
2144
2142
2172
2176
2167
2160
2112
2066
2015
1971
1943
1912
1904
1880
1880
1860
1874
1879
1961
1983
2006
2049
2071
2096
2103
2144
2119
2110
2078
2079
2155
2127
2151
2150
2118
2087
2060
2038
1969
1915
1880
1862
1845
1872
1896
1924
2020
2052
2076
2121
2141
2121
2150
2166
2142
2131
2124
2137
2152
2191
2140
2091
2073
2023
1972
1956
1925
1918
1909
1894
1881
1883
1880
1883
1888
1880
1918
1932
1947
1963
1979
1998
2027
2026
2048
2100
2114
2147
2166
2162
2157
2130
2120
2132
2118
2140
2068
2048
2024
1999
1994
2028
2033
2040
2038
2074
2043
2046
2031
2030
2043
2041
2054
2054
2071
2081
2081
2086
2058
2027
1998
1950
1904
1868
1847
1833
1847
1879
1927
1963
2007
2015
2080
2102
2116
2178
2193
2196
2165
2148
2114
2116
2097
2127
2098
2107
2086
2041
2035
2015
2004
1983
1996
1974
1953
1969
1955
1958
1941
1946
1970
1993
2038
2054
2096
2099
2120
2117
2133
2125
2097
2073
2029
1971
1909
1887
1832
1802
1836
1827
1851
1887
1927
1984
2013
2030
2058
2041
2023
1959
1911
1896
1895
1929
1903
1896
1948
1978
2014
2150
2085
2117
2117
2144
2099
2093
2081
2110
2103
2136
2146
2172
2123
2107
2050
2039
2022
2066
2047
2058
2031
2013
1987
1970
1963
1969
1940
1945
1943
1968
1953
1978
1981
1990
2006
2051
2077
2111
2111
2107
2114
2118
2104
2095
2078
2095
2074
2052
2028
2007
2001
1970
1968
1966
1966
1991
2000
1991
1974
1946
1931
1942
1946
1960
2024
2015
2069
2118
2162
2195
2268
2326
2383
2424
2530
2626
2702
2777
2875
2927
3016
3083
3173
3231
3271
3274
3211
3084
2911
2720
2475
2198
1882
1582
1269
990
727
497
336
210
80
102
147
167
258
373
508
679
831
1010
1175
1336
1439
1596
1716
1844
1982
2085
2208
2304
2387
2467
2564
2607
2680
2661
2675
2641
2642
2622
2591
2546
2527
2483
2443
2410
2387
2372
2369
2350
2372
2199
2131
2074
2011
1968
1925
1895
1878
1861
1860
1852
1863
1879
1924
1969
1999
2035
2065
2130
2119
2119
2103
2092
2064
2055
2056
2039
2041
2044
2043
2063
2087
2082
2073
2068
2053
2055
2049
2055
2047
2049
2045
2007
2008
2008
2021
2014
2029
2025
2014
2039
1978
1971
1959
1971
2022
2051
2106
2137
2169
2184
2168
2161
2159
2160
2142
2130
2150
2147
2186
2196
2171
2148
2118
2074
2017
1975
1944
1916
1891
1870
1852
1852
1880
1909
1931
1954
1986
2015
2030
2047
2057
2071
2112
2163
2162
2195
2199
2217
2202
2196
2176
2144
2128
2102
2069
2019
2002
1966
1932
1912
1904
1886
1890
1922
1927
1938
1954
1973
1987
1947
1898
1888
1850
1859
1857
1864
1870
1901
1922
1912
1893
1877
1831
1803
1787
1793
1784
1756
1726
1731
1733
1739
1793
1782
1780
1795
1797
1800
1812
1838
1854
1881
1927
1958
1966
1964
1989
1981
2008
2011
2032
2054
2115
2120
2160
2205
2223
2220
2231
2259
2212
2207
2203
2178
2175
2153
2150
2122
2116
2102
2088
2068
2083
2071
2099
2102
2136
2162
2186
2207
2227
2215
2199
2147
2099
2058
2001
1988
1980
1940
1911
1890
1863
1884
1977
1977
1975
2024
2075
2082
2045
2043
2012
1999
2010
2013
2011
2016
2019
2038
2067
2066
2099
2084
2108
2092
2097
2096
2089
2078
2092
2091
2094
2094
2082
2071
2052
2042
2065
2022
2042
2054
2047
2047
2039
2060
2071
2099
2113
2103
2105
2090
2087
2047
2024
1984
1941
1910
1931
1929
1956
1966
1979
2013
2049
2039
2076
2082
2100
2077
2077
2088
2088
2072
2030
2000
1982
1986
1936
1909
1871
1864
1863
1877
1901
1968
1946
1971
2010
2035
2084
2122
2161
2192
2203
2216
2224
2213
2214
2201
2184
2182
2162
2146
2119
2044
1984
1944
1889
1860
1838
1833
1850
1867
1875
1883
1899
1895
1918
1919
1933
1945
1976
1968
1968
1963
1996
2032
2065
2078
2112
2119
2134
2134
2151
2154
2159
2195
2208
2221
2214
2187
2126
2068
2003
1931
1829
1758
1738
1718
1737
1760
1772
1793
1795
1847
1893
1954
1989
2048
2080
2088
2100
2103
2123
2151
2147
2127
2087
2056
2046
2052
2064
2084
2087
2083
2090
2084
2083
2109
2152
2150
2135
2131
2118
2113
2086
2083
2087
2085
2091
2065
2064
2057
2083
2094
2055
2016
1968
1928
1888
1952
1885
1864
1866
1810
1793
1754
1747
1751
1755
1771
1806
1867
1923
1984
2039
2093
2125
2175
2201
2216
2231
2231
2223
2224
2214
2219
2166
2100
1948
1935
1974
2034
2064
2083
2102
2098
2095
2086
2088
2078
2084
2086
2072
2081
2069
2068
2084
2051
2038
2023
2013
2002
1987
1941
1923
1895
1895
1878
1904
1908
1921
1962
1997
2076
2105
2118
2112
2087
2088
2033
2051
2019
2024
2045
2031
2045
2057
2022
2011
2011
2004
2002
2000
1987
2019
2085
2131
2176
2215
2244
2220
2183
2137
2113
2079
2067
2060
2047
2039
2023
1976
1951
1882
1858
1812
1769
1758
1774
1807
1833
1874
1864
1870
1892
1914
1954
1972
1983
2037
2031
2075
2081
2084
2101
2095
2072
2103
2097
2111
2091
2049
2034
1969
1923
1871
1868
1889
1903
1931
1939
1979
2054
2071
2145
2188
2219
2262
2252
2207
2173
2114
2071
2016
1967
1936
1872
1859
1867
1875
1890
1931
1904
1920
1926
1961
1993
2071
2093
2152
2201
2240
2269
2273
2258
2235
2212
2169
2123
2071
2043
2083
1978
1965
1919
1919
1887
1861
1852
1874
1882
1905
1897
1915
1946
1989
2036
2071
2111
2176
2186
2250
2272
2325
2404
2463
2540
2620
2664
2736
2790
2832
2865
2928
2956
2978
2987
2964
2938
2916
2738
2574
2358
2128
1858
1556
1239
974
730
544
370
276
218
211
252
316
402
494
628
763
961
1120
1335
1553
1895
2086
2195
2326
2418
2491
2558
2583
2607
2613
2603
2618
2634
2643
2655
2662
2626
2592
2561
2529
2472
2403
2296
2203
2115
2071
2035
2013
1994
1975
1964
1957
1992
1999
2011
2041
2045
2039
2044
2048
2069
2046
2095
2093
2106
2164
2195
2228
2398
2207
2186
2131
2070
2026
1994
1965
1952
1930
1930
1938
1946
1963
2002
2013
1992
1991
2004
1968
1969
1967
2016
2049
2071
2129
2164
2157
2131
2105
2059
2024
1965
1938
1899
1888
1867
1862
1859
1864
1887
1942
1973
2013
2023
2039
2065
2040
2042
2057
2064
2047
2056
2076
2097
2152
2181
2203
2223
2251
2240
2232
2189
2150
2122
2127
2103
2102
2095
2128
2080
2087
2068
2067
2056
2042
2023
2007
1993
1982
1949
1917
1890
1920
1966
2046
2112
2147
2152
2131
2107
2057
1995
1930
1882
1831
1799
1792
1776
1771
1787
1800
1832
1816
1803
1759
1795
1939
1759
1768
1775
1799
1833
1846
1868
1883
1906
1892
1895
1896
1890
1877
1871
1886
1903
1898
1904
1907
1936
1936
1920
1943
1991
2024
2055
2071
2082
2077
2121
2124
2135
2120
2113
2085
2073
2073
2072
2054
2028
1988
1982
2000
2114
2034
2017
2045
2077
2095
2119
2105
2126
2109
2071
2062
2016
2010
2039
2119
2194
2206
2214
2226
2222
2207
2190
2182
2133
2100
2088
2067
2072
2049
2047
2023
2053
2024
2066
2040
2032
2002
1991
1949
1875
1853
1839
1818
1826
1847
1867
1930
1959
2064
2017
2063
2093
2147
2158
2172
2178
2184
2181
2152
2142
2135
2128
2141
2113
2096
2095
2033
2033
2004
2027
2035
2037
2051
2058
2052
2087
2111
2109
2099
2037
2014
1984
1947
1928
1887
1874
1904
1948
1998
2076
2117
2159
2148
2119
2056
2003
1980
1936
1902
1882
1862
1882
1930
1946
2003
2024
2050
2065
2049
2047
2045
2025
1988
1980
1961
1987
2029
2073
2108
2207
2150
2193
2158
2136
2136
2116
2116
2103
2080
2030
2003
1999
1980
2004
1985
1993
1996
2000
1971
1933
1907
1867
1946
1847
1892
1925
1977
2054
2120
2182
2223
2251
2248
2239
2194
2144
2068
1996
1951
1912
1904
1887
1918
1907
1920
1937
1949
1956
1954
1931
1915
1902
1897
1896
1914
1972
1978
2014
2081
2114
2177
2189
2242
2255
2255
2226
2177
2088
2045
1983
1931
1932
1916
1936
1926
1926
1919
1923
1952
1993
2034
2090
2136
2177
2196
2221
2205
2179
2141
2054
2003
1976
1944
1942
1916
1912
1902
1907
1957
1973
2009
1999
2014
2034
2029
2038
2074
2092
2103
2092
2067
2049
2027
2001
1992
1962
1935
1919
1919
1871
1881
