2653
2903
3042
2961
2649
2082
1707
1348
1128
1099
1439
1836
2311
2719
3028
3193
3214
3023
2669
2267
1866
1410
1104
880
999
1394
1808
2259
2615
2863
3059
2960
2651
2304
1916
1500
1113
827
718
974
1383
1864
2294
2644
2848
2947
2791
2462
2151
1748
1381
1063
907
1042
1418
1972
2360
2753
3052
3190
3141
2855
2519
2115
1715
1316
1041
955
1180
1586
1986
2412
2722
2887
2943
2806
2452
2094
1695
1294
953
799
1047
1299
1759
2213
2606
2904
3054
3048
2769
2414
2022
1641
1220
959
873
1095
1504
1926
2319
2671
2833
2923
2780
2430
2110
1682
1291
987
831
952
1333
1767
2268
2662
2930
3123
3076
2860
2483
2130
1772
1392
1176
1087
1290
1707
2118
2647
2794
2953
2998
2868
2480
2112
1687
1258
935
706
725
1082
1473
1933
2345
2640
2788
2825
2620
2242
1898
1525
1175
942
886
1146
1599
2067
2550
2906
3136
3216
3093
2751
2401
1962
1543
1269
970
1045
1384
1791
2249
2620
2924
3051
3045
2855
2480
2087
1720
1332
1081
961
1127
1548
1952
2393
2699
2893
2975
2848
2521
2136
1714
1335
994
804
837
1207
1638
2080
2521
2814
2967
2999
2772
2399
2098
1612
1230
929
839
1031
1456
1980
2436
2922
3044
3143
3064
2753
2392
1974
1568
1204
1072
985
1284
1679
2122
2515
2773
2919
2945
2750
2388
2067
1627
1271
943
806
963
1379
1876
2338
2734
3013
3136
3072
2806
2399
1971
1576
1151
935
912
1208
1630
2061
2465
2763
2920
2960
2803
2376
2032
1649
1218
963
844
1010
1435
1859
2418
2734
2962
3095
3113
2786
2435
2056
1683
1287
1062
997
1280
1704
2117
2562
2872
3137
3127
2959
2535
2183
1760
1344
973
798
868
1255
1682
2110
2496
2799
2865
2848
2554
2167
1803
1438
1062
886
845
1137
1554
2019
2475
2803
2979
3053
2904
2557
2264
1813
1426
1129
970
1048
1423
1826
2242
2604
2866
2970
2935
2683
2352
1936
1560
1158
876
799
1119
1472
1923
2408
2794
2997
3110
3002
2640
2298
1864
1553
1159
989
1072
1445
1863
2300
2710
2971
3121
3071
2851
2495
2067
1650
1280
1011
926
1144
1575
1980
2427
2757
2923
3001
2894
2574
2241
1855
1446
1117
914
953
1286
1720
2173
2583
2879
2986
2999
2784
2400
1974
1600
1175
904
813
989
1402
1872
2321
2718
2883
2963
2864
2517
2161
1754
1348
1002
836
880
1221
1676
2149
2503
2812
2941
2961
2805
2456
2095
1732
1320
1016
897
1042
1416
1791
2248
2661
2867
3028
2956
2651
2312
2052
1543
1231
1065
1074
1398
1867
2328
2759
3024
3181
3175
2960
2590
2161
1746
1323
991
846
984
1579
1820
2252
2664
2853
3035
2914
2771
2603
2433
2166
1359
544
22
0
0
10
0
40
0
134
348
612
905
1189
1499
1779
2218
2341
2559
2753
2941
3063
3193
3253
3337
3354
3335
3283
3316
3071
2961
2816
2643
2488
2358
2202
2072
1968
1912
1848
1777
1707
1692
1796
1693
1717
1759
1783
1829
1849
1887
1944
2057
2178
2347
2450
2545
2548
2559
2556
2546
2510
2508
2500
2593
2645
2734
2711
2685
2611
2548
2440
2287
2106
1947
1747
1587
1436
1264
1123
962
820
668
514
388
237
134
128
38
38
0
30
20
26
33
122
96
136
175
272
306
398
480
563
639
706
813
939
1111
1271
1459
1639
1788
1918
2064
2143
2231
2308
2383
2440
2482
2529
2537
2567
2623
2649
2704
2708
2724
2761
2759
2778
2785
2775
2758
2814
2853
2923
2996
3017
3068
3074
3117
3145
3108
3120
3056
3009
2919
2878
2819
2818
2746
2710
2657
2584
2493
2402
2327
2294
2255
2187
2166
2135
2099
2121
2126
2173
2179
2198
2248
2207
2243
2272
2304
2317
2283
2280
2255
2230
2214
2243
2216
2187
2185
2220
2211
2246
2275
2256
2279
2249
2223
2255
2232
2223
2241
2254
2323
2469
2516
2587
2626
2628
2583
2519
2519
2543
2558
2601
2641
2661
2706
2750
2737
2681
2576
2478
2359
2310
2249
2155
2065
2004
1962
1988
1990
2017
2061
2163
2194
2234
2267
2270
2271
2256
2248
2256
2320
2306
2304
2293
2209
2143
2047
1946
1808
1663
1536
1408
1280
1175
1067
978
882
816
736
707
661
618
591
531
534
492
471
514
632
694
779
899
1001
1136
1265
1376
1547
1618
1717
1844
1951
2067
2358
2353
2501
2635
2804
2956
3138
3250
3376
3438
3487
3508
3499
3487
3454
3410
3423
3415
3315
3209
3104
2979
2812
2707
2577
2446
2299
2196
2078
1983
1812
1651
1502
1314
1150
998
863
733
648
556
359
251
192
134
156
237
352
474
552
682
806
939
1020
1117
1173
1251
1334
1446
1567
1685
1788
1866
1958
2051
2130
2177
2213
2281
2374
2407
2494
2535
2613
2698
2758
2792
2822
2851
2943
2983
3002
3007
2957
2847
2743
2627
2565
2566
2502
2480
2473
2429
2402
2447
2391
2450
2410
2452
2496
2573
2695
2839
2928
3023
3117
3216
3339
3374
3399
3345
3275
3110
2911
2740
2540
2307
2068
1799
1469
1266
939
727
590
483
453
485
570
621
745
880
1011
1157
1364
1599
1755
1901
2036
2122
2203
2262
2271
2283
2255
2311
2356
2359
2364
2369
2338
2357
2341
2339
2318
2281
2315
2166
2086
2086
1960
1958
1960
1967
2029
2071
2070
2120
2078
2111
2115
2090
2064
2030
2031
1996
1975
1997
2011
2028
2032
2011
2002
1944
1863
1840
1724
1675
1656
1712
1745
1776
1853
1922
2020
2095
2253
2205
2206
2178
2151
2171
2184
2209
2260
2292
2312
2368
2460
2550
2675
2768
2871
3025
3139
3263
3384
3455
3559
3690
3754
3904
3968
4031
4095
4095
4095
4095
4095
4095
4011
3875
3750
3559
3385
3202
3052
2858
2670
2461
2267
2087
1902
1768
1582
1413
1263
1089
1022
850
694
579
476
379
304
256
218
204
226
289
340
416
505
620
763
863
959
1080
1147
1232
1285
1345
1387
1379
1325
1282
1253
1294
1286
1370
1486
1587
1687
1792
1916
2008
2048
2068
2070
2088
2022
2036
1970
1926
1907
1932
1900
1883
1935
1980
2041
2119
2211
2342
2469
2587
2768
2749
2809
2847
2899
2955
2937
2950
2951
2982
3025
3087
3153
3160
3203
3197
3191
3163
3111
3011
2976
2897
2848
2783
2733
2659
2597
2524
2491
2426
2362
2311
2245
2206
2092
2025
1902
1779
1679
1629
1614
1581
1555
1535
1522
1482
1429
1429
1424
1410
1365
1324
1313
1344
1356
1364
1356
1284
1199
1132
1064
1021
959
895
831
783
768
798
825
855
880
925
983
1021
1072
1082
1127
1157
1184
1196
1207
1202
1186
1216
1191
1185
1338
1124
1123
1129
1181
1251
1324
1392
1491
1561
1639
1729
1837
1894
1920
1968
1973
1990
2078
1968
1914
1891
1946
1967
2007
2080
2132
2174
2197
2274
2335
2415
2515
2629
2695
2744
2742
2646
2768
2764
2803
2870
2923
2962
2967
3004
3054
3050
3088
3097
3069
3031
3031
2983
2981
2939
2911
2883
2904
2848
2834
2817
2766
2742
2677
2635
2601
2607
2608
2632
2620
2585
2609
2658
2712
2826
2936
3072
3205
3370
3500
3645
3804
3939
4012
4095
4095
4095
4095
4095
4095
4095
4093
4095
4020
3966
3887
3774
3613
3431
3186
2987
2774
2579
2365
2161
1936
1780
1589
1432
1313
1148
1022
862
756
624
525
387
310
240
227
175
165
134
82
83
80
27
0
32
0
21
0
5
26
0
0
30
0
0
3
0
0
0
0
0
0
0
0
0
0
7
0
28
11
0
8
16
0
203
0
44
157
280
427
688
785
939
1114
1272
1451
1600
1672
1817
1934
2067
2167
2279
2393
2489
2563
2569
2645
2660
2670
2718
2752
2816
2806
2782
2752
2766
2769
2895
2800
2818
2817
2821
2844
2875
2896
2855
2888
2877
2856
2796
2783
2773
2764
2765
2791
2732
2758
2919
2712
2702
2702
2743
2786
2892
2919
3014
3091
3188
3276
3416
3444
3488
3487
3473
3416
3350
3232
3137
3033
2943
2911
2922
2931
2935
2936
2931
2909
2852
2742
2651
2528
2406
2313
2406
2160
2127
2047
2026
1939
1918
1873
1827
1768
1744
1711
1632
1631
1624
1567
1574
1608
1576
1610
1613
1603
1738
1631
1627
1567
1495
1431
1311
1196
1177
1043
1024
1050
1063
1176
1222
1284
1333
1356
1379
1373
1352
1374
1457
1504
1605
1696
1803
1902
1989
2101
2137
2183
2264
2321
2390
2451
2515
2519
2554
2607
2692
2768
2779
2889
2871
2729
2560
2467
2379
2240
2149
2127
2023
2009
1939
1840
1778
1744
1707
1668
1604
1540
1460
1377
1287
1243
1229
1204
1227
1264
1339
1398
1512
1632
1758
1867
2120
2108
2248
2360
2499
2610
2764
2912
2955
2983
2962
2938
2847
2781
2595
2416
2231
1976
1739
1514
1329
1118
943
824
745
718
706
751
853
946
1023
1119
1216
1334
1449
1648
1817
1978
2183
2277
2406
2513
2527
2537
2512
2477
2399
2368
2357
2379
2391
2450
2467
2479
2451
2427
2395
2357
2291
2240
2174
2103
2125
2013
1991
1999
2032
2016
2039
2057
2107
2128
2118
2121
2117
2108
2145
2156
2274
2280
2333
2365
2396
2391
2403
2381
2375
2552
2344
2295
2246
2211
2167
2160
2170
2163
2176
2171
2213
2216
2216
2207
2183
2163
2135
2068
2022
1967
1938
1925
1936
2023
1992
2040
2035
2095
2129
2150
2176
2171
2157
2110
2114
2110
2128
2161
2186
2236
2204
2181
2121
2041
1997
1986
2008
1957
1944
1960
2021
2025
2076
2111
2198
2287
2420
2563
2685
2808
2904
2935
2976
2959
2912
2914
2900
2870
2776
2705
2648
2575
2475
2367
2256
2122
1951
1820
1685
1614
1550
1528
1496
1503
1529
1576
1590
1576
1692
1632
1681
1739
1787
1894
2007
2086
2142
2112
2056
1984
1878
1797
1734
1676
1620
1626
1603
1553
1521
1498
1505
1568
1605
1633
1644
1743
1600
1615
1619
1692
1628
1652
1647
1672
1640
1696
1717
1782
1848
1853
1861
1899
2009
2023
2090
2199
2321
2443
2509
2535
2508
2484
2424
2339
2250
2169
2130
2105
2090
2070
2050
2038
2047
2065
2070
2070
2060
2042
2034
2016
1979
1940
1924
1878
1891
1834
1825
1879
1818
1842
1775
1754
1731
1655
1612
1568
1543
1525
1528
1536
1575
1648
1734
1834
1932
2020
2139
2208
2300
2376
2399
2415
2420
2444
2448
2519
2600
2638
2694
2676
2637
2591
2577
2556
2476
2457
2424
2392
2372
2337
2328
2273
2240
2217
2206
2171
2145
2106
2038
2000
1944
1890
1866
1851
1904
1908
1947
1958
2031
2094
2162
2255
2268
2295
2260
2228
2214
2232
2207
2248
2215
2213
2169
2108
2003
1901
1808
1663
1592
1518
1525
1521
1560
1621
1684
1752
1827
1996
1971
1980
1971
1975
1937
1954
1887
1867
1856
1804
1748
1721
1711
1659
1650
1670
1631
1599
1578
1584
1529
1519
1524
1516
1562
1601
1655
1707
1759
1840
1937
2066
2167
2304
2408
2561
2663
2792
2919
2987
3088
3165
3182
3146
3063
2951
2850
2743
2663
2531
2432
2351
2262
2184
2082
1991
1909
1770
1669
1542
1434
1345
1232
1152
1088
1109
1076
1094
1145
1171
1151
1218
1191
1207
1160
1163
1192
1239
1242
1306
1336
1393
1470
1462
1512
1589
1603
1624
1658
1686
1727
1773
1804
1881
1840
1830
1888
1963
1996
2024
2038
2039
2063
2047
2043
2010
2020
2005
1967
1960
1976
2007
2063
2154
2152
2149
2188
2145
2128
2088
1982
1893
1831
1781
1801
1840
1945
2004
2071
2048
2094
2050
2047
2023
2019
1989
1951
1920
1928
1943
1959
1983
2000
1977
1969
2039
2027
2026
2038
2031
2048
1974
1935
1918
1875
1871
1889
1938
1948
1959
1984
1927
1908
1878
1836
1768
1709
1675
1641
1631
1629
1636
1672
1699
1738
1727
1753
1879
1755
1759
1777
1815
1874
1948
2015
2054
2120
2150
2150
2159
2174
2147
2154
2131
2130
2156
2228
2220
2321
2352
2386
2424
2428
2476
2296
2254
2319
2148
2109
2111
2080
2098
1984
1949
1939
1947
1982
2031
2049
2037
1976
1944
1856
1747
1632
1596
1601
1563
1634
1647
1686
1720
1698
1686
1608
1521
1456
1406
1376
1362
1410
1424
1482
1523
1576
1646
1755
1765
1789
1852
2031
1906
2054
2034
2103
2177
2287
2423
2533
2649
2754
2883
3003
3084
3157
3232
3256
3338
3351
3447
3535
3594
3615
3607
3518
3393
3192
2937
2646
2335
2086
1816
1551
1302
1120
952
808
713
646
571
568
550
588
643
711
764
874
985
1142
1279
1459
1697
1725
1841
1939
1991
2022
2047
2059
2015
1992
1948
1920
1889
1894
1892
1929
2019
2112
2199
2307
2343
2391
2403
2439
2450
2462
2465
2494
2526
2574
2623
2644
2600
2552
2511
2461
2488
2464
2388
2356
2312
2294
2280
2328
2350
2386
2451
2475
2444
2413
2343
2283
2232
2144
2092
2061
2041
2057
2032
2106
2015
1951
1895
1843
1824
1821
1847
1835
1862
1900
1964
1975
2048
2086
2120
2147
2147
2189
2144
2203
2159
2146
2131
2091
2087
2084
2091
2082
2037
2015
1923
2018
1729
1585
1399
1255
1046
893
799
824
739
776
850
1030
1132
1303
1491
1655
1778
1882
1985
2045
2117
2197
2245
2352
2405
2463
2476
2501
2522
2521
2473
2449
2367
2296
2220
2164
2171
2126
2189
2208
2256
2323
2338
2336
2311
2341
2338
2377
2288
2462
2568
2496
2512
2512
2522
2496
2466
2404
2350
2278
2208
2136
2084
2051
2064
2015
2032
2021
2074
2082
2071
2083
2075
2108
2059
2031
2032
1995
1986
1989
2017
2050
2162
2103
2141
2219
2224
2188
2183
2151
2140
2117
2066
2038
2056
2050
2112
2208
2306
2392
2423
2422
2368
2323
2243
2193
2149
2142
2121
2138
2189
2206
2242
2271
2298
2350
2300
2246
2208
2190
2155
2108
2116
2091
2110
2079
2048
2048
2039
2026
2034
2003
1996
1954
1888
2020
1827
1835
1869
1926
1968
2007
2079
2128
2158
2170
2151
2171
2096
2039
2031
2040
2026
2022
2043
2058
2032
2056
2059
2080
2056
2008
1952
1991
1880
1839
1795
1782
1805
1927
1868
1923
1951
1988
2032
2051
2051
2083
2097
2072
2053
2063
2060
2043
2070
2093
2089
2143
2093
2097
2243
2062
2043
2038
1969
1969
1952
1941
1917
1872
1866
1856
1791
1823
1792
1793
1803
1783
1836
1760
1748
1746
1761
1735
1816
1757
1747
1791
1751
1774
1707
1693
1644
1604
1553
1519
1535
1571
1566
1594
1611
1702
1682
1709
1743
1758
1795
1792
1794
1778
1772
1776
1814
1836
1881
1942
1942
2008
2013
2033
2041
2013
1999
2002
1981
2004
2047
2119
2181
2224
2295
2327
2332
2339
2288
2265
2239
2206
2227
2288
2370
2419
2523
2591
2623
2665
2672
2704
2680
2658
2634
2560
2495
2463
2444
2455
2481
2473
2512
2487
2487
2488
2399
2334
2275
2239
2211
2203
2212
2242
2261
2251
2237
2170
2101
2052
1980
1883
1799
1706
1643
1603
1655
1543
1558
1559
1604
1656
1648
1680
1668
1663
1672
1668
1643
1643
1660
1646
1671
1691
1728
1717
1714
1723
1730
1811
1736
1719
1704
1721
1660
1697
1697
1736
1787
1859
1906
1967
2031
2016
2031
2072
2062
2105
2054
2065
2095
2079
2082
2066
2067
2060
2030
2000
2030
2046
2047
2078
2079
2173
2092
2134
2124
2115
2098
2099
2081
2082
2047
2064
2062
2006
1959
1942
1875
1840
1847
1873
1875
1915
1885
1904
1865
1868
1875
1909
1978
1999
2088
2018
2020
2037
2068
2067
2125
2171
2185
2212
2219
2184
2197
2165
2151
2129
2129
2122
2051
2043
2025
2026
2031
2051
2057
2046
1996
1951
1892
1863
1874
1843
1863
1899
1920
1925
1947
1940
2048
1991
1982
1987
2008
1972
1951
1968
1941
1957
2023
2003
2056
2098
2082
2173
2068
2084
2114
2077
2008
1946
1888
1807
1792
1799
1704
1679
1643
1610
1589
1620
1594
1583
1573
1575
1582
1607
1636
1740
1789
1862
1883
1946
1996
2068
2143
2250
2380
2468
2557
2723
2776
2843
2895
2888
2896
2840
2722
2579
2473
2285
2112
1952
1838
1655
1559
1475
1400
1379
1324
1315
1313
1365
1440
1548
1643
1631
1727
1817
1907
2034
2102
2202
2286
2351
2466
2536
2602
2611
2629
2564
2506
2425
2363
2330
2291
2280
2253
2294
2347
2377
2374
2321
2268
2227
2179
2111
2076
2048
2030
2046
2052
2035
2079
2080
2062
2074
2030
1951
1927
1892
1874
1878
1897
1927
1960
1986
2016
2070
2090
2095
2075
2067
2026
2222
2037
2071
2018
2026
2015
2008
2039
2034
2072
2119
2113
2170
2200
2179
2227
2160
2136
2148
2184
2238
2303
2347
2399
2383
2441
2301
2272
2237
2195
2197
2211
2230
2182
2175
2138
2083
2044
1985
1919
1844
1782
1684
1616
1560
1499
1454
1458
1410
1424
1465
1527
1602
1671
1734
1768
1799
1816
1829
1904
1923
1972
2038
2097
2128
2152
2171
2176
2203
2242
2248
2270
2263
2221
2221
2193
2272
2168
2165
2175
2176
2190
2194
2195
2185
2158
2157
2183
2185
2205
2237
2269
2335
2398
2427
2464
2474
2458
2459
2454
2397
2345
2327
2258
2111
2045
1950
1885
1818
1779
1735
1689
1687
1680
1662
1658
1661
1672
1663
1624
1643
1583
1568
1531
1522
1506
1506
1471
1475
1502
1546
1571
1618
1693
1794
1879
1998
2098
2168
2259
2300
2328
2322
2279
2232
2223
2170
2167
2083
2015
2038
2020
2043
2075
2119
2170
2173
2190
2254
2238
2231
2223
2195
2205
2154
2141
2154
2170
2179
2203
2160
2083
1998
1986
1902
1884
1920
1909
1962
1996
2032
2064
2135
2178
2167
2159
2090
2036
1956
1919
1918
1962
1976
1993
2016
2088
2067
2114
2112
2096
2095
2008
1972
1860
1819
1792
1723
1686
1699
1759
1839
1895
2004
2096
2176
2199
2213
2211
2189
2155
2128
2133
2111
2135
2144
2161
2193
2164
2201
2172
2179
2207
2211
2266
2191
2142
2145
2062
2042
2022
2017
2040
2028
2024
2028
2007
2018
1949
1947
1862
1823
1779
1748
1719
1703
1712
1756
1779
1817
1860
1912
1945
1945
1936
1945
1908
1918
1955
1983
2017
2028
2049
2100
2049
2027
1995
2010
2002
1948
1940
1905
1916
1950
1916
1935
1959
2006
1979
1986
2021
2007
1986
1948
1967
2003
2039
2084
2250
2186
2256
2326
2330
2332
2292
2226
2139
2064
1983
1905
1850
1829
1798
1764
1795
1805
1826
1845
1884
1936
1951
1992
1988
1988
2004
2086
2089
2121
2148
2190
2216
2207
2215
2187
2160
2156
2067
2057
2069
2072
2059
2047
2044
2043
2047
2043
2043
2034
2094
2082
2114
2067
2016
2007
1911
1924
1935
2014
2020
2060
2064
2139
2167
2224
2261
2282
2257
2287
2306
2306
2281
2287
2230
2235
2194
2128
2092
2050
2069
2057
2052
2073
2054
2026
2008
1968
1942
1901
1847
1814
1783
1743
1682
1648
1601
1586
1532
1508
1512
1583
1640
1695
1763
1823
1879
1919
1943
1941
1986
2023
2084
2094
2088
2105
2081
2032
2001
1966
1957
1932
1960
2041
1934
1925
1921
1920
2064
2023
2000
2005
2038
2062
2202
2090
2048
2051
1976
1951
1957
1983
2031
2055
2142
2184
2192
2196
2186
2196
2089
2073
2062
1983
1939
1948
1917
1946
1981
1997
2048
2097
2086
2104
2149
2062
2054
2050
2042
2127
2067
2101
2154
2163
2212
2199
2344
2286
2322
2300
2245
2177
2108
2031
1932
1830
1795
1784
1815
1875
1950
2046
2069
2111
2136
2131
2176
2176
2125
2111
2056
2145
2127
2063
2122
2273
2315
2557
2543
2648
2784
2849
2968
3047
3112
3174
3185
3224
3165
3055
2936
2799
2600
2348
2027
1727
1454
1243
957
795
603
523
488
479
532
623
675
787
912
987
1196
1228
1318
1434
1568
1637
1761
1887
1970
2057
2115
2179
2273
2308
2397
2455
2507
2550
2551
2556
2544
2538
2546
2555
2491
2441
2369
2285
2240
2136
2059
2014
1972
1988
2047
2097
2214
2215
2243
2247
2235
2201
2145
2102
2046
2043
1998
1970
1931
1916
1931
1931
1959
1995
2044
2056
2110
2079
2099
2066
2047
2030
2024
2004
1990
2020
2035
2091
2092
2110
2088
2093
2067
2035
2045
2047
1995
1990
2001
2005
2198
2084
2104
2133
2131
2123
2119
2106
2083
2098
2074
2047
2052
2071
2070
2057
2092
2042
2007
1990
1988
1979
1973
1946
1971
1940
1949
1999
1952
1948
1919
1918
1920
1919
1880
1843
1870
1788
1740
1770
1799
1835
1884
1954
1959
1978
1965
1974
1983
2016
2024
2059
2063
2063
2096
2068
2081
2072
2080
2061
2054
2034
2043
2008
1994
1984
1975
1917
1881
1833
1792
1787
1842
1841
1831
1891
1842
1871
1879
1891
1918
2098
1909
1910
1856
1822
1820
1774
1729
1708
1675
1652
1636
1607
1663
1636
1672
1656
1680
1712
1807
1827
1924
2007
2094
2175
2179
2234
2240
2207
2224
2290
2148
2183
2148
2157
2183
2215
2228
2244
2250
2304
2333
2319
2294
2230
2130
2022
1970
1978
1946
1970
1991
2016
2045
2070
2018
1996
1988
1936
1925
1892
1887
1869
1871
1871
1860
1871
1920
1899
1953
2006
2041
2065
2116
2114
2119
2118
2145
2083
2104
2038
2023
2013
2032
2074
2081
2112
2122
2134
2151
2149
2149
2160
2173
2199
2166
2156
2135
2119
2100
2111
2099
2077
2082
2011
2015
1978
2000
2019
2065
2082
2093
2082
2083
2056
2050
2040
1991
2013
2012
2035
2091
2152
2194
2239
2236
2264
2262
2192
2148
2112
2034
1953
1971
1983
2027
2073
2092
2099
2102
2112
2096
2064
2038
2008
1968
1922
1915
1860
1844
1828
1737
1730
1744
1775
1828
1889
1958
1976
2048
2077
2128
2158
2190
2229
2224
2232
2242
2227
2208
2181
2115
2049
1964
1894
1853
1801
1803
1804
1793
1860
1934
1976
2063
2130
2162
2210
2180
2172
2164
2129
2064
2022
1968
1904
1839
1812
1776
1771
1748
1748
1779
1783
1818
1860
1894
1948
2008
2075
2115
2123
2148
2168
2188
2169
2168
2110
2052
2069
1962
1903
1901
1867
1908
1920
1945
1951
1989
1987
2002
2005
2003
2031
2046
2058
2082
2068
2086
2125
2137
2208
2201
2191
2167
2083
2046
2010
2019
2038
2071
2162
2195
2226
2243
2207
2178
2069
2003
1908
1858
1801
1775
1778
1751
1777
1769
1780
1803
1826
1853
1872
1863
1877
1885
1911
1900
1940
2000
2004
2079
2167
2234
2307
2368
2582
2404
2398
2331
2298
2292
2223
2204
2150
2132
2137
2079
2039
2047
2046
2045
2032
2040
2022
1994
1991
1959
1939
1847
1823
1783
1821
1843
1863
1937
2003
2050
2025
2026
1994
1987
1955
1955
1960
1980
1978
1999
2038
2038
2064
2100
2055
2074
2079
2046
2045
1990
1925
1875
1889
1887
2035
2178
2052
2061
2057
2051
2050
2054
2023
2022
2008
2063
1982
2019
2040
2058
2123
2122
2136
2136
2096
2052
2187
1978
1997
1963
1979
1994
2032
2064
2042
2093
2099
2102
2103
2104
2104
2136
2119
2097
2102
2081
2066
2064
2023
2022
1996
1989
1918
1887
1878
1878
1899
1907
1911
1936
1942
1971
2046
2032
2052
2118
2119
2166
2200
2245
2232
2249
2271
2290
2353
2466
2536
2625
2760
2841
2891
2971
3064
3121
3197
3223
3258
3183
3128
2984
2780
2544
2176
1814
1456
1158
772
491
263
88
0
0
18
14
109
246
404
563
756
989
1200
1408
1584
1772
1905
2007
2100
2187
2236
2324
2393
2450
2507
2565
2566
2544
2494
2468
2419
2377
2334
2328
2298
2338
2351
2380
2394
2410
2400
2375
2343
2356
2272
2240
2192
2164
2151
2176
2115
2099
2075
2019
2031
1987
1999
2004
1986
1953
1947
1941
1927
1954
2042
2075
2157
2196
2278
2256
2257
2225
2159
2096
2040
1977
1930
1862
1814
1773
1735
1694
1778
1665
1664
1717
1874
1886
1967
2057
2102
2212
2293
2275
2330
2341
2342
2331
2323
2250
2184
2137
2095
2027
1986
1948
1888
1858
1922
1855
1914
1954
2015
2049
2067
2123
2147
2139
2156
2177
2189
2199
2183
2178
2046
2127
2122
2102
2065
2032
1980
1971
1894
1869
1858
2015
1900
1920
1931
1978
2007
2102
2139
2200
2251
2303
2213
2160
2115
2083
2083
2010
2007
2036
2017
2010
2013
2009
1962
1927
1858
1826
1757
1728
1700
1704
1702
1695
1696
1679
1685
1684
1712
1712
1710
1717
1768
1759
1768
1741
1744
1779
1781
1835
1913
2038
2076
2135
2207
2212
2310
2207
2191
2199
2190
2123
2086
2066
2018
2031
2050
1954
1919
1877
1880
1868
1849
1895
1923
1912
1964
2007
2003
2029
2047
2044
2095
2099
2150
2114
2112
2135
2086
2095
2125
2139
2168
2175
2192
2214
2215
2232
2216
2114
2051
1966
1958
1895
1921
1918
1939
1967
1977
2036
2041
2083
2134
2140
2163
2194
2180
2139
2144
2047
2001
1882
1810
1756
1733
1815
1822
1882
1955
2048
2103
2123
2171
2224
2262
2283
2276
2263
2226
2167
2116
2037
2027
1996
1933
1922
1894
1881
1891
1926
1903
1962
1962
1975
2008
1986
2028
2033
2043
2014
2025
2006
1991
1923
1881
1884
1876
1889
1943
1968
1990
2025
2026
2004
1988
2035
2051
2080
2134
2204
2256
2314
2341
2368
2336
2400
2245
2157
2041
1970
1905
1878
1887
1901
1916
1953
2016
2027
2045
2041
2057
2050
2047
2024
2200
2008
1991
2004
2011
2049
2058
2056
2070
2056
2000
1963
1931
1872
1841
1840
1856
1863
1876
1904
1938
2008
2050
2079
2132
2190
2162
2127
2134
2080
1997
1943
1944
1913
1904
1891
1894
1914
1920
1922
1950
1976
1972
1940
1970
1989
2031
2071
2105
2182
2221
2261
2231
2224
2223
2230
2167
2101
2112
2046
1989
1951
2046
1853
1870
1884
1912
1941
1878
1963
1968
1951
1899
1907
1895
1909
1944
2036
2067
2148
2222
2274
2332
2312
2313
2242
2204
2097
2064
1942
1913
1857
1847
1864
1879
1909
1871
1858
1879
1835
1810
1800
1804
1839
1899
1949
2003
2057
2130
2192
2202
2171
2159
2160
2132
2150
2132
2073
2052
2053
1975
1930
1871
1827
1834
1844
1871
1875
1925
1988
2005
2040
2088
2114
2107
2122
2137
2145
2161
2288
2246
2297
2335
2357
2340
2293
2235
2201
2166
2127
2123
2083
2056
2029
1957
1855
1776
1724
1634
1588
1555
1616
1643
1700
1802
1840
1982
1907
1963
1988
2076
2079
2127
2167
2175
2176
2132
2064
2039
2003
1949
1924
1855
1822
1781
1799
1821
1851
1903
1976
2060
2121
2166
2224
2305
2288
2369
2362
2355
2353
2307
2246
2177
2054
2004
1939
1922
1876
1872
1920
1894
1969
1945
1888
1842
1852
1818
1833
1840
1866
1993
2010
2054
2099
2121
2145
2177
2192
2242
2204
2180
2154
2095
2029
2044
2030
2013
2157
2144
2080
2081
2122
2112
2113
2120
2156
2168
2144
2149
2079
2084
1943
1865
1814
1741
1712
1681
1690
1731
1848
1871
2105
2126
2290
2502
2700
2915
3124
3263
3399
3466
3485
3447
3380
3319
3135
2955
2771
2530
2297
2045
1735
1439
1189
929
683
498
414
216
151
106
165
212
333
507
716
889
1120
1294
1489
1642
1759
1858
1946
1996
2050
2077
2139
2213
2291
2368
2452
2555
2640
2751
2672
2729
2692
2654
2589
2586
2526
2482
2402
2372
2336
2316
2268
2173
2099
1987
1939
1896
1898
1898
1905
1970
1996
2047
2120
2117
2140
2135
2132
2134
2089
2075
2050
2071
2091
2110
2107
2105
2107
2107
2076
2048
2059
1975
1942
1938
1947
1907
1933
1923
1941
1963
1991
2042
2094
2272
2157
2164
2166
2156
2112
2110
2068
2059
2047
2032
2074
2094
2163
2049
2003
1988
1966
1961
1931
1928
1916
1935
2081
1952
1975
2032
2014
2036
2030
1984
1944
1920
1927
1927
2003
2066
2035
2035
2096
2095
2147
2191
2192
2216
2264
2282
2278
2283
2234
2207
2166
2184
2160
2137
2170
2144
2115
2076
2081
2047
1991
2027
1938
1932
1920
1928
1902
1926
2031
2056
2007
2008
1991
1992
1940
1918
1900
1876
1862
1799
1803
1787
1811
1815
1816
1826
1880
1960
1890
1922
1935
1898
1856
1805
1784
1752
1726
1721
1761
1771
1813
1814
1794
1809
1783
1813
1792
1803
1806
1803
1850
1843
1908
1888
1954
1984
2015
2030
2036
2031
2047
2091
2010
2023
2051
2064
2082
2100
2111
2160
2239
2233
2264
2322
2280
2281
2246
2208
2143
2124
2047
2018
1968
1939
1960
1962
1987
1947
2019
2000
2019
2055
2038
2031
2011
1963
1912
1841
1804
1846
1792
1839
1874
1916
1961
2032
2081
2167
2185
2204
2241
2280
2298
2351
2312
2295
2262
2210
2258
2084
2034
1995
1991
2000
1958
2018
2052
2080
2144
2192
2160
2158
2058
1982
2109
1883
1859
1844
1881
1855
1904
1914
1970
1962
1995
1985
1958
1992
2036
2069
2091
2131
2174
2197
2211
2383
2229
2238
2247
2194
2150
2113
2082
2016
1977
1967
1971
2028
2055
2086
2091
2098
2105
2070
2074
2062
2009
1951
1916
1819
1776
1764
1751
1710
1741
1788
1840
1869
1930
1966
2020
2055
2088
2121
2150
2194
2225
2293
2307
2350
2305
2412
2266
2207
2165
2103
2039
2027
1938
1866
1831
1768
1748
1742
1785
1857
1926
2011
2078
2110
2121
2143
2135
2118
2136
2128
2144
2140
2104
2069
2034
1976
1963
1900
1853
1860
1872
1864
1877
1911
1924
1924
1924
1935
1946
1945
1968
1935
1912
1879
1827
1809
1838
1836
1896
1971
2043
2126
2185
2220
2231
2233
2202
2183
2147
2131
2121
2091
2075
2096
2114
2160
2170
2175
2192
2183
2143
2087
2064
1969
1919
1859
1855
1838
1866
1847
1881
1950
1983
2056
2116
2137
2208
2210
2154
2170
2123
2059
1991
1944
1868
1811
1807
1782
1772
1739
1719
1711
1715
1914
1836
1992
1991
2103
2191
2275
2303
2280
2256
2206
2162
2094
2022
1965
1918
1899
1886
1919
1935
1973
2060
2109
2139
2206
2210
2266
2202
2230
2170
2210
2169
2176
2163
2228
2207
2212
2191
2159
2146
2084
2047
2009
1964
1875
1859
1876
1843
1826
1795
1775
1814
1869
1922
1952
1976
1972
1964
1979
1967
1984
2003
1968
1938
1920
1889
1907
1868
1868
1840
1843
1840
1800
1812
1782
1859
1783
1788
1898
1957
2076
2135
2172
2202
2174
2156
2097
2080
2012
1986
2007
2029
2014
2035
2061
2074
2242
2127
2115
2120
2108
2068
2075
2056
2084
2095
2118
2098
2073
2066
2038
2003
1975
1976
1884
1856
1847
1846
1888
1945
1996
2023
2046
2081
2141
2144
2153
2183
2197
2204
2196
2226
2198
2165
2101
2048
1980
1921
1867
1968
1827
1882
1889
1908
2007
1994
2078
2180
2290
2449
2602
2861
2856
2987
3097
3170
3242
3399
3336
3307
3276
3231
3148
3107
2856
2623
2348
1998
1632
1256
913
655
372
176
32
0
0
0
35
153
274
418
561
722
919
1101
1363
1591
1843
2085
2283
2426
2567
2662
2680
2694
2705
2676
2663
2612
2515
2383
2295
2208
2194
2159
2169
2180
2215
2237
2261
2265
2259
2250
2280
2275
2472
2311
2320
2344
2270
2255
2230
2240
2200
2155
2122
2121
2064
2063
2033
2007
1984
1972
1962
1972
2009
2055
2114
2112
2112
2150
2151
2203
2141
2128
2047
1978
1904
1872
1870
1838
1858
1885
1899
1942
1965
1971
1980
2000
2013
2040
2048
2089
2162
2179
2183
2167
2267
2160
2240
2112
2073
2035
2032
1996
1951
2096
1966
1964
1993
1983
1996
1944
1924
1928
1922
1944
1973
1999
2056
2050
2039
2073
2103
2155
2218
2218
2288
2253
2240
2173
2161
2126
2129
2110
2048
1990
1976
1979
1936
1960
2002
2007
2076
2078
2084
2067
2064
2007
2070
1972
1913
1874
1855
1874
1909
1929
1978
1927
1936
1929
1968
1911
1925
1836
1775
1718
1706
1699
1763
1865
1814
1842
1913
1920
1945
1971
1946
1948
1966
1975
1995
1998
2024
1994
1960
1944
1874
1858
1862
1844
1799
1834
1804
1836
1860
1835
1855
1852
1888
1889
2034
1895
1907
1947
1947
1953
1986
2008
2004
2071
2136
2158
2195
2239
2289
2414
2290
2314
2350
2366
2339
2319
2287
2306
2287
2240
2193
2152
2106
2047
2002
1967
1935
1940
1936
1931
1944
1963
1984
1981
2027
2050
2056
2068
2089
2091
2071
2039
2009
1987
1970
1954
1978
2035
2060
2111
2148
2202
2217
2211
2167
2159
2085
2030
1968
1938
1913
1847
1873
1852
1864
1908
1917
1947
1953
2012
1998
2010
2038
1986
1956
1981
1999
2023
2033
2057
2071
2110
2062
2056
2047
2007
2013
2017
2015
2037
2065
2132
2110
2110
2103
2294
2093
2096
2086
2087
2103
2081
2026
1978
1972
1974
1968
2114
2012
1986
2041
2021
2067
2047
2036
2041
2017
1960
1936
1983
2045
2081
2080
2121
2139
2139
2203
2148
2092
2035
1975
1887
1864
1848
1838
1877
1879
1941
1965
2032
2016
2043
2064
2096
2059
2062
2077
2083
2111
2130
2137
2191
2168
2124
2120
2047
2007
1960
2033
1876
1847
1840
1818
1840
1899
1970
1996
2035
2063
2047
2059
2031
2006
1935
1879
1831
1807
1815
1850
1873
1970
2021
2103
2119
2122
2154
2100
2224
2112
2039
2031
2032
2041
2088
2067
2072
2053
2049
2050
2047
2041
2048
2043
2030
1984
2001
1962
1967
1971
2035
2072
2082
2111
2074
2039
2033
2040
2004
2002
1943
1948
1970
1990
2014
2025
1983
1996
1984
1962
2043
1980
1970
1973
1968
1970
1995
2024
2068
2087
2117
2138
2137
2127
2130
2103
2087
2039
1992
1896
1865
1887
1904
1936
1960
1979
2038
2174
2087
2095
2085
2087
2067
2023
1976
1984
2038
2003
2082
2144
2193
2352
2269
2261
2247
2230
2179
2136
2099
2078
2022
2037
1968
1985
1879
1788
1732
1706
1723
1703
1734
1781
1820
1863
1952
2050
2059
2106
2089
2190
2071
2060
2016
1972
1939
1919
1917
1906
1902
1907
1903
2003
1930
1958
1948
1970
2001
2055
2068
2155
2168
2145
2168
2136
2162
2166
2220
2198
2317
2219
2204
2156
2137
2103
2086
2048
2106
2053
2035
2051
2080
2079
2086
2047
2030
2024
1976
1979
1952
1955
1940
1885
1838
1806
1803
1777
1809
1864
1928
2009
2034
2061
2077
2068
2097
2067
2045
2108
2048
2051
2058
2085
2092
2144
2222
2304
2406
2486
2575
2689
2783
2873
2935
3020
3094
3131
3144
3123
3075
2997
2878
2754
2535
2373
2046
1779
1612
1295
1139
959
816
705
592
528
466
421
424
503
519
603
726
831
1068
1093
1207
1333
1499
1622
1778
1886
2007
2066
2162
2237
2360
2428
2521
2625
2685
2706
2719
2690
2667
2657
2610
2530
2434
2317
2225
2123
2054
2047
2048
2094
2112
2111
2126
2150
2142
2157
2152
2135
2165
2167
2182
2218
2268
2291
2296
2286
2218
2168
2122
2027
1959
1867
1823
1778
1760
1757
1771
1781
1797
1872
1926
1959
2001
1976
2011
1972
1980
1999
2028
2052
2131
2227
2321
2423
2468
2428
2368
2272
2197
2130
2004
1913
1848
1812
1805
1813
1815
1841
1879
1896
1904
2011
1953
2013
2039
2076
2150
2201
2198
2246
2289
2296
2323
2335
2337
2295
2251
2198
2160
2070
2049
1979
1949
1879
1860
1891
1950
2018
2038
2100
2129
2135
2126
2111
2079
2031
1970
1935
1952
1894
1942
1948
2036
1922
1904
2095
1893
1894
1900
1903
1917
1942
2024
2031
2039
2097
2090
2136
2103
2116
2090
2041
2009
1953
1910
1824
1779
1765
1701
1712
1724
1704
1719
1757
1727
1759
1748
1759
1756
1772
1754
1739
1768
1737
1813
1761
1812
1848
1913
1959
1973
2001
2001
2003
2039
2052
2095
2164
2137
2208
2230
2220
2213
2200
2139
2175
2152
2148
2118
2105
2108
2102
2133
2094
2100
2099
2103
2110
2112
2123
2090
2048
2024
2008
2002
2079
2071
1990
1994
2006
1996
2057
2097
2155
2223
2216
2176
2090
2059
2038
2003
1971
1949
1943
1940
1955
1967
2011
2037
2025
2046
2046
2050
2050
2062
2226
2137
2164
2171
2190
2184
2185
2157
2111
2075
1998
1980
1947
1951
1955
1926
1930
1938
1891
1860
1842
1834
1836
1836
1874
1897
1958
2017
2092
2159
2224
2232
2251
2256
2209
2171
2105
2048
2018
1997
1975
1923
1951
1972
2028
2067
2064
2099
2102
2123
2142
2184
2175
2175
2144
2119
2102
2092
2077
2069
2048
2015
2015
2000
1965
1903
1884
1883
1842
1802
1809
1807
1813
1894
1880
1887
1987
2032
2041
2005
2053
1996
2016
2016
2024
2064
2208
2132
2161
2155
2180
2127
2118
2106
2049
2006
1970
1926
1880
1863
1880
1911
1938
1931
1935
1953
1954
1967
2000
2060
2006
2011
1981
1957
1994
2056
2092
2147
2135
2162
2176
2186
2211
2140
2079
2031
2032
2007
1985
1993
1996
2004
2026
2007
2051
2080
2116
2101
2087
2128
2021
1936
1931
1883
1860
1906
1851
1863
1878
1907
1932
1931
1941
1961
1993
1974
2016
1984
1982
2035
2042
2071
2083
2190
2079
2122
2150
2153
2176
2160
2161
2125
2113
2060
2043
2061
2088
2101
2099
2079
2056
1984
1945
1903
1891
1878
1892
1941
1920
1952
1988
1942
2102
1903
1896
1888
1918
1908
1928
1952
1971
1991
2021
2020
2034
2042
2054
2059
2047
2030
2047
2033
2025
2032
1980
1988
1966
1979
1991
2036
2044
2083
2110
2136
2165
2132
2148
2038
2006
1940
1903
1931
1926
1921
1948
1967
1991
1989
1969
1950
1939
2102
1952
1935
1970
1959
1952
1913
1910
1877
1870
1888
1864
1875
1886
1872
1876
1888
2000
1939
1954
1997
2022
2063
2098
2094
2070
2066
2071
2040
2019
2192
2012
2006
2023
2032
2019
2064
2059
2123
2169
2171
2161
2137
2081
2055
2015
1975
1984
2029
2064
2095
2143
2154
2171
2202
2131
2115
2120
2077
2059
2018
2007
1989
1980
1977
1983
2055
1991
2052
2025
1950
1961
1921
1914
1968
1989
1979
2026
2074
2161
2201
2173
2177
2168
2158
2188
2209
2236
2290
2356
2497
2534
2608
2702
2807
2953
3054
3197
3299
3391
3439
3496
3496
3345
3124
2887
2611
2265
1929
1600
1278
970
731
475
277
139
30
0
27
61
152
250
383
551
723
944
1137
1534
1558
1819
1880
1958
2063
2136
2213
2433
2353
2437
2494
2603
2613
2779
2686
2722
2730
2665
2623
2590
2635
2593
2387
2312
2281
2239
2179
2151
2131
2113
2095
2048
2037
2028
2018
2067
2022
2000
2039
2016
2054
2052
2065
2090
2107
2136
2096
2134
2072
2047
2025
2032
1975
1958
1932
1905
1951
1943
1974
1952
1948
2009
1960
1939
1948
1924
1911
1919
2039
2045
2074
2154
2136
2131
2215
2256
2240
2215
2221
2188
2190
2207
2218
2218
2221
2187
2150
2098
2065
2196
1951
1936
1916
1910
1928
1956
1987
2026
2039
2030
2034
2014
2000
2006
1986
1996
2008
2020
2048
2061
2063
2057
2032
2046
2050
2066
2066
2080
2195
2098
2053
1989
1939
1859
1847
1886
1918
1946
1989
2013
2001
1996
1958
1990
1951
1978
2000
2048
2056
2090
2093
2144
2147
2148
2143
2112
2058
2015
2010
1955
1926
1929
1914
1913
1873
1822
1799
1736
1712
1676
1641
1637
1661
1678
1668
1707
1768
1798
1882
1895
1918
1960
1968
2143
1962
1968
1940
1931
1929
1920
1902
1943
1965
2015
2051
2110
2148
2193
2220
2229
2240
2235
2223
2207
2189
2132
2078
2020
2023
2018
2016
2032
2043
2042
2044
2025
1978
1967
2031
2026
1983
2027
2012
2014
2015
2007
1992
2075
2012
2082
2003
2019
2026
2197
2062
2111
2166
2352
2199
2199
2166
2160
2122
2012
1996
1955
1940
1879
1912
1887
1883
1887
1884
1895
1886
1926
1970
2011
2068
2101
2175
2191
2193
2200
2186
2177
2144
2128
2090
2119
2085
2098
2095
2094
2084
2283
2082
2090
2046
2046
2037
2037
2034
2065
2084
2079
2085
2081
2083
2026
1964
1997
1975
1990
2017
2032
2084
2109
2172
2168
2117
2080
2046
1997
1982
1948
1969
1974
1989
2014
2050
2146
2100
2061
2077
2067
2066
2075
2098
2059
2066
2063
2007
1997
1980
1959
1959
1968
1945
1943
1945
1970
1983
1970
1952
1935
1934
1937
1964
1989
2029
2047
2120
2115
2082
2070
2006
1946
2048
1929
1892
1911
1930
1982
2032
2020
2016
2007
2011
1989
1951
1946
1893
1904
1887
1890
1906
1951
1979
2011
2037
2095
2044
2108
2107
2128
2151
2082
2055
2064
2029
2024
2036
2029
2030
2019
2018
2009
2019
2012
1978
1910
1871
1856
1892
1972
2027
2088
2111
2123
2159
2310
2137
2198
2069
2054
2029
1991
1974
1997
2020
2099
2172
2217
2241
2239
2143
2046
1947
1863
1790
1776
1719
1727
1740
1801
1866
1918
1930
1977
1950
1978
1971
2011
2035
2071
2112
2151
2162
2139
2081
2083
2026
2001
1935
1906
1829
1840
1799
1808
1791
1815
1863
1895
2130
2044
2087
2103
2144
2156
2209
2200
2224
2288
2311
2333
2379
2383
2365
2374
2250
2186
2121
2178
1959
1903
1864
1800
1750
1715
1687
1730
1721
1754
1793
1807
1849
1892
1917
1972
1989
2033
2105
2167
2227
2285
2344
2371
2394
2412
2415
2393
2339
2460
2210
2047
1966
1869
1807
1795
1804
1778
1755
1787
1782
1825
1879
1936
1966
2091
2154
2248
2460
2416
2342
2304
2298
2245
2147
2060
1990
1911
1813
1716
1672
1579
1533
1507
1467
1464
1459
1509
1577
1594
1636
1688
1823
1850
1963
2123
2212
2319
2376
2445
2491
2479
2628
2518
2476
2404
2359
2300
2212
2140
2067
2018
1973
1903
1852
1852
1800
1790
1824
1922
1998
2019
2079
2144
2184
2231
2304
2310
2317
2310
2302
2235
2177
2125
2051
2011
1883
1816
1731
1702
1646
1659
1638
1671
1716
1806
1899
1952
1970
2037
2089
2120
2142
2135
2094
2173
2019
2017
2000
2002
2125
2056
2113
2195
2306
2354
2388
2455
2583
2670
2740
2830
2937
3015
3099
3181
3343
3313
3312
3223
3103
2928
2705
2451
2090
1786
1503
1211
955
799
648
477
355
296
208
188
177
248
303
404
506
612
777
946
1119
1289
1494
1699
1962
2074
2243
2354
2493
2616
2658
2692
2716
2742
2835
2768
2758
2743
2707
2650
2590
2554
2446
2393
2384
2311
2273
2215
2223
2190
2151
2152
2143
2148
2082
2052
2040
2006
1948
1912
1892
1873
1953
1938
1956
1960
1988
2033
2003
2023
2011
2087
2021
2032
1979
2010
2030
2095
2250
2210
2238
2250
2211
2164
2077
2032
1997
1945
1985
1928
1940
1943
2004
2048
2063
2089
2109
2111
2129
2088
2093
2114
2091
2094
2160
2155
2019
2067
2050
2102
2075
2070
2068
2020
2020
1955
1933
1898
1866
1904
1918
1947
2028
2071
2165
2302
2298
2331
2335
2322
2300
2225
2129
2044
1968
1890
1838
1817
1791
1794
1921
1859
1856
1915
1972
2003
2048
2088
2135
2228
2241
2295
2347
2369
2314
2282
2167
2174
1958
1898
1848
1832
1811
1823
1847
1846
1896
1915
1921
1938
1934
1938
1936
1954
1921
1873
1833
1763
1803
1685
1648
1657
1664
1658
1636
1656
1669
1711
1733
1757
1756
1781
1855
1837
1848
1837
1864
1823
1926
1819
1841
1828
1842
1863
1917
1965
2025
2071
2143
2215
2239
2275
2267
2271
2256
2256
2247
2212
2167
2198
2183
2147
2192
2181
2175
2278
2212
2372
2244
2187
2195
2208
2214
2168
2098
2032
1966
1920
1890
1864
1904
1879
1927
1953
1973
1931
1935
1940
1937
1963
1964
1987
2030
2070
2134
2151
2170
2167
2174
2151
2155
2143
2121
2034
2011
1949
1920
1857
1824
1802
1783
1809
1833
1880
1920
1952
2003
2051
2120
2093
2138
2136
2181
2184
2220
2246
2222
2199
2165
2141
2135
2102
2121
2101
2093
2119
2219
2114
2123
2085
2080
2072
2087
2105
2111
2104
2051
1970
1924
1872
1843
1840
1836
1847
1866
1901
1936
1991
2047
2078
2122
2155
2209
2246
2281
2331
2344
2335
2314
2214
2109
1991
1889
1795
1707
1640
1596
1597
1622
1614
1653
1725
1818
1928
2027
2073
2117
2158
2160
2183
2226
2275
2270
2271
2289
2252
2208
2175
2147
2156
2089
2016
1976
1937
1914
1916
1919
1986
2016
2021
2064
2149
2084
2135
2098
2080
2015
1954
1904
1872
1842
1822
1811
1818
1812
1855
1876
1867
1885
1920
1954
1998
2038
2054
2065
2104
2229
2195
2128
2130
2150
2114
2120
2088
2053
2039
2052
2052
2005
1996
1968
1956
1957
1963
1975
1987
1977
1963
1930
1940
1910
1919
1946
1938
1980
2001
2037
2091
2190
2164
2203
2207
2206
2154
2106
2103
2097
2135
2104
2112
2167
2106
2052
2038
2027
1988
1971
1959
1969
1930
1947
1896
1908
1904
1875
1879
1996
1974
1985
2006
2046
2207
2046
2041
2058
2045
2013
2000
2004
2007
2034
2053
2074
2101
2105
2070
2075
2078
2064
2047
2074
2046
2044
2076
2070
2079
2094
2102
2085
2041
1984
1902
1879
1855
1840
1841
1843
1836
1855
1898
1932
1970
2011
2070
2106
2143
2187
2248
2235
2273
2288
2260
2259
2244
2225
2192
2134
2123
2059
2008
1957
1898
1858
1815
1779
1794
1747
1790
1812
1862
1889
1926
1959
2040
2099
2179
2151
2219
2251
2218
2206
2202
2219
2208
2160
2114
2101
2050
2024
1956
1911
1893
1833
1799
1782
1812
1789
1789
1812
1860
1923
2023
2279
2183
2220
2192
2142
2093
2034
1944
1890
1810
1792
1729
1712
1702
1686
1717
1756
1762
1757
1773
1791
1843
1919
2024
2124
2223
2346
2380
2448
2383
2378
2339
2332
2235
2239
2143
2101
2091
2091
2072
2072
2033
2003
1980
2034
1923
1927
1948
2020
2015
2047
2073
2058
2028
2039
2061
2094
2128
2140
2087
2028
1940
1863
1837
1828
1837
1845
1855
1874
1912
1952
2003
2022
2056
2105
2039
2052
2051
2099
2141
2229
2275
2298
2368
2352
2354
2295
2234
2151
2075
1993
1970
1910
1843
1798
1790
1794
1825
1888
1910
1993
2072
2172
2271
2390
2487
2624
2773
2930
3087
3250
3326
3415
3529
3488
3383
3252
3027
2781
2463
2155
1872
1512
1198
910
686
439
327
222
133
103
113
151
277
353
448
583
748
938
1169
1476
1656
1873
2056
2190
2263
2322
2338
2373
2322
2309
2285
2393
2256
2270
2277
2264
2289
2304
2338
2337
2368
2357
2324
2313
2319
2357
2439
2506
2559
2600
2590
2520
2439
2335
2272
2184
2091
2007
1930
1903
1830
1811
1831
1825
1819
1822
1892
1889
1920
1956
1960
1980
2021
2071
2134
2229
2217
2272
2293
2291
2322
2268
2233
2199
2123
2070
2047
1975
2093
1975
1968
1977
2001
2015
2035
2044
2044
2038
2116
1984
1965
1953
1946
1962
2009
2054
2065
2068
2100
2087
2047
2049
1983
1952
1935
1917
1897
1951
1943
1969
2035
2048
2094
2146
2228
2276
2301
2280
2292
2284
2274
2198
2150
2212
2098
2104
2076
2060
2047
2016
1993
2008
1971
1970
1981
2012
2041
2070
2080
2103
2120
2284
2134
2131
2117
2159
2040
1978
1985
1923
1881
1851
1872
1815
1848
1878
1895
1942
1952
1937
1916
1863
1836
1808
1778
1811
1872
1907
1967
1979
1997
1976
1959
1900
1789
1745
1684
1639
1602
1575
1567
1595
1608
1663
1676
1698
1703
1707
1739
1788
1798
1808
1818
1832
1928
1990
2080
2198
2275
2262
2308
2290
2276
2279
2263
2240
2228
2206
2163
2097
2080
2104
2068
2079
2095
2114
2114
2141
2168
2113
2096
2096
2128
2174
2162
2146
2169
2083
2037
1991
1983
1981
1978
1981
1995
1992
1991
1987
1986
2000
2015
2056
2123
2151
2189
2234
2276
2294
2271
2282
2215
2145
2003
1918
1835
1805
1799
1810
1831
1875
1912
1934
1970
1973
1992
2003
1999
2034
2032
2073
2065
2157
2140
2159
2176
2165
2193
2206
2176
2149
2147
2055
2007
2003
1940
1941
1919
1954
1955
1985
1984
1986
2011
1960
1937
1938
2009
2084
2174
2267
2306
2293
2259
2198
2147
2068
2021
1980
1983
1921
1899
1876
1879
1895
1902
1944
1927
1959
2003
1982
2018
2015
2032
2068
2086
2196
2107
2102
2100
2067
2076
2061
1984
1981
1930
1924
1917
1904
1887
1883
1870
1928
1923
1957
1999
2097
2107
2159
2205
2260
2270
2259
2201
2143
2023
1963
1899
1882
1855
1889
1913
1912
1909
1913
1919
1920
1919
1926
1975
1970
2035
2065
2085
2078
2119
2126
2084
2072
1977
1911
1872
1803
1768
1779
1811
1843
1962
1952
2031
2055
2099
2120
2109
2124
2132
2144
2110
2131
2168
2178
2235
2212
2193
2228
2196
2175
2125
2057
2007
1944
1923
1925
1915
1935
2067
1996
2043
2052
2090
2143
2147
2113
2096
2155
2019
1990
1979
1960
1955
1976
1961
1934
1896
1872
1846
1839
1867
1901
1945
1954
1966
2011
2000
1947
2096
2116
2096
2055
2061
2047
2060
2015
2028
1954
1940
1887
1888
1884
1903
1946
2024
2092
2118
2111
2116
2122
2087
2142
1993
1938
1959
1928
1936
1927
1936
1949
1968
2026
2077
2061
2090
2128
2140
2190
2132
2135
2087
2140
2092
2043
2062
2027
2034
2016
2027
2019
2027
1978
1985
1991
1991
1978
1990
2049
2113
2165
2169
2185
2165
2179
2075
2039
2030
1918
1868
1807
1831
1760
1766
1798
1848
1920
1985
2016
2051
2096
2094
2071
2104
2069
2088
2118
2156
2194
2228
2251
2231
2207
2194
2203
2170
2110
2083
2052
2006
1925
2025
2037
2020
1996
1944
1882
1871
1876
1853
1862
1880
1919
1967
1951
1967
1951
1952
1971
1994
2041
2022
2020
2019
2113
2087
2169
2159
2173
2194
2145
2113
2047
2004
1928
1873
1793
1760
1713
1719
1685
1723
1743
1743
1888
1819
1931
1984
2050
2063
2099
2121
2119
2118
2128
2110
2057
2195
2101
2111
2127
2167
2151
2182
2147
2111
2077
2069
2015
1982
1947
1938
1924
1935
1976
2023
2066
2111
2160
2170
2163
2144
2116
2036
2022
2011
1974
1982
1959
1971
1993
1998
1999
2024
2060
2054
2117
2083
2115
2092
2047
2020
2005
2000
1986
2111
1969
1984
1967
2104
1944
2094
1958
1882
1890
1883
1918
1968
2064
2178
2307
2482
2559
2608
2637
2673
2718
2790
2741
2781
2847
2922
3014
3080
3155
3138
3128
3051
2950
2704
2443
2151
1881
1544
1289
1072
921
787
675
593
539
483
546
419
416
411
426
498
625
766
939
1114
1281
1424
1777
1830
1911
2050
2152
2235
2305
2354
2374
2446
2523
2703
2772
2811
2871
2831
2762
2665
2573
2431
2360
2260
2210
2126
2086
2012
1988
1977
1996
1982
1969
1969
1977
2011
2031
2079
2172
2240
2325
2422
2468
2530
2567
2596
2509
2392
2260
2095
1935
1870
1744
1701
1667
1703
1713
1736
1776
1779
1813
1839
1863
1877
1903
1966
2026
2103
2198
2270
2316
2348
2348
2303
2248
2178
2115
2040
2002
1936
1940
1916
1935
1907
1910
1936
1926
1984
1962
1980
1984
1986
1964
2019
2040
2076
2137
2234
2304
2399
2447
2514
2497
2458
2416
2312
2196
2071
2008
1934
1872
1794
1731
1720
1720
1720
1697
1669
1715
1754
1797
1856
1932
2014
2067
2172
2272
2293
2307
2312
2287
2244
2179
2172
2086
2016
1976
1928
1895
1894
1891
1907
1923
1926
1994
2030
2063
2112
2091
2092
2023
1966
1869
1817
1771
1750
1714
1695
1696
1690
1711
1683
1683
1679
1834
1743
1643
1597
1571
1570
1567
1622
1687
1762
1823
1923
1985
2006
2037
2032
2059
2071
2122
2133
2103
2112
2104
2112
2135
2154
2166
2171
2207
2185
2182
2190
2152
2128
2099
2111
2138
2127
2170
2134
2089
2066
2074
2080
2099
2092
2036
2011
1951
1922
1899
1924
1978
2087
2063
2090
2152
2151
2142
2127
2139
2176
2182
2177
2192
2196
2267
2144
2108
2087
2074
2049
2018
1981
1981
1971
1977
1973
1954
1943
1940
1996
1991
2038
2086
2129
2184
2176
2164
2102
2032
2016
1934
1940
1917
1942
1916
1914
1911
1927
1915
1910
1985
1953
1985
1991
2051
2067
2110
2150
2221
2247
2317
2319
2277
2241
2226
2154
2120
2052
1996
1986
1940
1937
1957
1967
1947
1962
1998
2049
2073
2064
2075
2057
2001
1954
1899
1878
1889
1879
1915
1911
1937
1974
1979
2047
2048
2202
2024
2084
2047
2056
2106
2126
2163
2186
2183
2183
2167
2167
2103
2062
2037
2027
2033
2008
2009
2020
2008
1983
1993
1986
1982
1951
1989
1947
1975
1940
1934
1944
1950
1923
1931
1888
1928
1951
2003
2027
2024
1963
1934
1911
1888
1856
1843
1858
1852
1860
1892
1887
1913
1923
1939
1987
2005
1987
2064
2123
2111
2160
2207
2215
2391
2271
2257
2305
2266
2276
2208
2231
2152
2118
2071
2078
2039
2017
1971
2007
2000
2036
2023
2033
2051
2141
2069
2015
1936
1858
1811
1760
1749
1741
1767
1826
1879
1989
2062
2124
2146
2139
2123
2125
2087
2071
2084
2048
2072
2065
2067
2118
2062
2075
2062
2071
2047
2065
2167
2056
2083
2044
2024
2026
2067
2067
2075
2094
2051
2051
2031
1980
1951
1940
1959
1982
2033
2060
2120
2068
2064
1987
1927
1898
1823
1839
1759
1755
1714
1719
1721
1753
1827
1864
1934
2031
2104
2172
2238
2264
2268
2311
2260
2175
2180
2127
2104
2115
2131
2123
2133
2094
2062
2038
2021
2113
1931
1960
1989
2016
2037
2051
2067
2185
2099
2107
2095
2048
1972
1918
1889
1835
1936
1938
2014
2021
2046
2093
2076
2114
2077
2075
2055
2048
2038
2049
2050
2018
2049
2039
2018
2025
1981
1959
1942
1912
1907
1955
1971
2021
2048
2098
2167
2220
2235
2273
2310
2352
2353
2199
2245
2165
2064
1962
1907
1826
1789
1740
1748
1725
1770
1798
1830
1836
1849
1823
1802
1800
1798
1806
1828
1904
1931
1988
2018
2029
2018
2019
2080
2010
1961
1926
1899
1930
1944
1969
1975
1987
2025
2057
2085
2146
2205
2260
2293
2300
2367
2251
2224
2153
2140
2122
2121
2076
2050
2080
2031
2039
2056
2045
2011
2002
2008
1946
1927
1911
1926
1956
1989
2030
2054
2064
2016
1935
1897
1842
1779
1771
1782
1815
1872
1944
1972
2046
2053
2092
2072
2120
2140
2098
2113
2084
2067
2116
2137
2128
2147
2175
2229
2215
2190
2184
2159
2130
2095
2053
2055
2045
2096
2119
2208
2290
2374
2526
2630
2842
2847
3010
3110
3142
3185
3205
3182
3183
3129
3046
2926
2739
2518
2269
1940
1618
1323
986
700
477
325
191
176
120
185
277
379
515
654
834
931
1051
1191
1346
1443
1575
1704
1834
1948
2047
2135
2218
2296
2377
2368
2432
2456
2454
2449
2424
2404
2392
2398
2416
2459
2435
2423
2400
2369
2347
2312
2263
2240
2209
2196
2199
2194
2166
2197
2209
2244
2255
2242
2209
2187
2146
2131
2104
2070
2044
2015
1989
1989
2024
2043
2061
2096
2138
2091
2091
2049
2044
1979
1986
2016
1968
1991
1946
1941
1971
1954
1896
1871
1904
1897
1936
1961
2013
2097
2175
2247
2323
2335
2333
2345
2252
2224
2149
2099
2027
1971
1921
1899
1899
1926
1938
2001
2061
2134
2196
2189
2135
2099
2044
2004
1975
1934
1931
1938
1960
2076
1930
2107
1952
1943
2015
1987
2023
2043
2039
2022
2052
2057
2109
2136
2161
2202
2183
2172
2208
2178
2182
2189
2214
2141
2127
2087
2054
2019
2006
1973
1931
1866
1908
1856
1819
1827
1796
1811
1798
1835
1832
1827
1830
1799
1831
1864
1895
1916
1951
2066
2109
1917
1880
1848
1815
1830
1775
1772
1770
1738
1708
1700
1713
1730
1768
1776
1793
1759
1850
1813
1873
1898
1949
1978
2006
2009
2036
2030
2028
1999
1999
1992
1994
2031
2039
2066
2145
2232
2197
2221
2240
2311
2276
2403
2416
2303
2269
2240
2232
2177
2165
2136
2152
2125
2051
2028
1983
1952
1928
1892
1850
1872
1908
1964
1989
2008
2043
2023
2049
2055
2070
2077
2115
2113
2118
2104
2099
2108
2096
2099
2123
2111
2130
2138
2127
2106
2078
2026
1924
1911
1823
1800
1808
1922
1863
1922
1929
1948
1985
2003
2080
2110
2123
2168
2176
2204
2251
2304
2368
2400
2430
2426
2369
2238
2095
1939
1825
1752
1721
1705
1726
1742
1784
1819
1863
1869
1934
1942
1959
1966
2017
2036
2077
2163
2218
2300
2353
2338
2321
2225
2148
2111
1997
1857
1739
1647
1622
1595
1632
1749
1803
1893
2018
2068
2134
2201
2240
2272
2292
2285
2226
2238
2199
2199
2237
2264
2330
2323
2343
2289
2206
2112
2003
1882
1767
1686
1667
1660
1659
1728
1741
1783
1829
1856
1908
2025
1956
1988
2019
2118
2194
2196
2231
2237
2236
2189
2182
2111
2046
1980
1938
1900
1888
1859
1831
1806
1802
1760
1746
1777
1807
1851
1935
2023
2083
2153
2201
2270
2262
2319
2327
2310
2368
2208
2178
2092
2043
1999
1975
1938
1905
1893
1903
1893
1885
1881
1897
1880
1894
1923
1980
2030
2107
2210
2244
2277
2306
2321
2243
2130
2020
1937
1920
1855
1826
1831
1841
1873
1862
1869
1927
1936
1978
1992
2016
2044
2085
2114
2141
2169
2246
2224
2256
2267
2204
2168
2084
2016
1964
1856
1817
1815
1746
1796
1767
1818
1811
1829
1838
1854
1893
1887
1951
2005
2048
2100
2142
2131
2136
2159
2165
2186
2155
2128
2087
2093
2070
2030
2013
2000
1965
2003
1951
1987
2021
2043
2085
2068
2050
2085
2031
2072
2032
2091
2222
2243
2287
2310
2286
2214
2111
2009
1906
1834
1762
1714
1706
1714
1791
1797
1808
1875
1913
1996
2036
2058
2110
2129
2143
2184
2147
2140
2111
2135
2170
2212
2235
2323
2295
2308
2286
2239
2189
2113
2047
1981
1895
1863
1783
1776
1736
1748
1739
1762
1750
1783
1834
1827
1876
1886
1915
1948
1972
2012
2079
2151
2176
2196
2207
2147
2112
2047
2004
1980
1971
1924
1895
1902
1944
1986
2019
2039
2075
2084
2127
2089
2053
2002
1991
1984
1959
2036
2050
2103
2167
2194
2236
2250
2263
2244
2236
2162
2124
2069
2049
2065
1943
1933
1889
1881
1871
1875
1859
1888
1886
1937
1865
1843
1827
1831
1861
1868
1880
1919
1923
1951
1913
1920
1882
1907
1881
1904
1886
1915
1923
1990
2057
2158
2182
2225
2225
2226
2225
2239
2208
2191
2157
2168
2094
2032
2006
2037
2064
2089
2112
2129
2131
2136
2156
2135
2116
2103
2125
2048
2049
2020
2039
2036
2064
2040
2048
2011
2000
1984
1973
1971
1937
1936
1899
1884
1892
1898
1938
1960
1983
1997
2031
2020
2018
2050
2074
2079
2112
2355
2234
2255
2299
2256
2199
2266
2120
2029
1982
1913
1863
1848
1822
1915
1829
1869
1951
2034
2134
2257
2415
2538
2654
2807
2915
2975
3036
3123
3161
3231
3257
3224
3141
3012
2856
2656
2406
2113
1823
1548
1216
928
744
570
424
320
288
244
219
277
352
461
571
699
859
983
1136
1282
1451
1614
1822
1938
2094
2230
2327
2422
2443
2456
2447
2423
2393
2356
2327
2298
2276
2270
2280
2292
2311
2368
2358
2379
2382
2323
2347
2348
2366
2395
2400
2352
2347
2288
2261
2202
2121
2068
1974
1952
1943
1912
1904
1974
1999
2057
2039
2032
2035
2023
2039
2064
2070
2086
2111
2155
2152
2176
2181
2196
2192
2189
2180
2377
2175
2144
2134
2119
2064
2031
1995
1970
1993
2015
2017
2051
2117
2152
2186
2165
2146
2155
2103
2018
1953
1916
1833
1806
1765
1778
1779
1794
1831
1865
1902
2018
2000
2047
2267
2190
2210
2250
2212
2215
2179
2088
1998
1958
1944
1929
1944
1985
2134
2066
2098
2133
2191
2207
2225
2231
2218
2270
2235
2143
2115
2078
2091
2099
2064
2051
2054
2037
2030
2020
2016
2022
2047
2057
2040
2026
1994
1940
1859
1794
1736
1681
1691
1688
1719
1717
1712
1718
1733
1778
1787
1823
1826
1850
1867
1936
1920
1978
2053
2081
2134
2143
2147
2126
2067
2051
1871
1785
1696
1689
1603
1573
1563
1559
1540
1565
1580
1611
1685
1751
1795
1860
1936
1979
2043
2140
2180
2218
2241
2240
2241
2240
2266
2282
2355
2391
2435
2439
2407
2384
2345
2307
2239
2208
2167
2067
2108
2012
1987
1976
1984
1957
1963
1960
1971
1978
1971
1955
1963
2007
1983
2033
2018
2091
2143
2176
2231
2231
2261
2263
2288
2297
2292
2299
2228
2181
2117
2069
1977
1882
1832
1769
1683
1640
1634
1614
1653
1730
1862
1951
2037
2098
2108
2104
2131
2123
2182
2238
2257
2280
2291
2248
2241
2210
2139
2077
2008
1931
1832
1744
1683
1652
1665
1734
1727
1840
1959
2016
2115
2205
2224
2198
2168
2173
2165
2171
2168
2172
2186
2159
2151
2103
2060
2030
1968
1963
1967
1983
2003
2015
2063
2072
2056
2036
2015
2040
2084
2089
2136
2168
2194
2141
2163
2106
2130
2083
2083
2123
2123
2085
2084
2046
2039
2031
1999
2009
1968
1959
1943
1922
1905
1878
1888
1858
1856
1860
1872
1877
1920
1918
1960
1961
1967
1991
2008
2021
2054
2110
2223
2245
2261
2294
2247
2185
2017
1870
1755
1695
1696
1697
1743
1745
1797
1809
1808
1807
1870
1888
1917
1969
2010
2120
2103
2154
2242
2320
2390
2387
2400
2361
2314
2275
2199
2099
2003
1900
1850
1853
1869
1856
1891
2008
1935
1971
1982
1986
2011
2002
2048
2007
2078
1991
2021
2160
2123
2167
2184
2133
2113
2144
2143
2160
2140
2097
2045
1934
1920
1931
1870
1934
1952
2020
2027
2109
2103
2113
2092
2055
2099
1964
1928
1904
1928
1936
2005
1996
2024
2005
2002
2015
2031
2045
2068
2048
1987
1969
1963
1948
2075
2001
1955
1999
1999
2000
2100
2027
2043
2049
2084
2123
2146
2159
2151
2129
2062
2027
1906
1839
1832
1776
1808
1850
1879
1919
1939
1976
1982
1992
2044
2055
2100
2155
2218
2289
2339
2333
2332
2280
2305
2161
2071
1991
1943
1894
1855
1831
1851
1838
1880
1904
1924
1954
1984
1963
1963
1987
2046
2086
2096
2110
2123
2122
2091
2050
2007
1954
1907
1892
1874
1870
1887
1924
1980
2047
2114
2136
2160
2160
2132
2121
2111
2091
2094
2120
2143
2145
2328
2232
2204
2158
2125
2059
2031
1947
1848
1839
1855
1875
1932
1990
2012
2054
2095
2133
2134
2136
2113
2117
2039
1994
1995
1867
1989
1973
2021
2012
2011
1993
1998
1949
1943
1914
1857
1847
1831
1886
1891
1900
1935
2080
1991
2043
2072
2107
2123
2100
2050
2044
1983
1978
1952
1947
1936
1931
1935
1935
1923
1905
1881
1889
1859
1869
1864
1930
1964
2039
2063
2120
2134
2150
2177
2187
2195
2197
2167
2230
2189
2240
2221
2231
2248
2256
2287
2218
2174
2096
2046
1964
1899
1852
1803
1790
1800
1769
1786
1759
1781
1799
1842
1896
1887
1946
2000
2032
2156
2080
2153
2125
2131
2128
2118
2132
2111
2107
2075
2058
2011
1985
1965
1961
1962
1952
1973
2030
2089
2147
2240
2273
2291
2255
2199
2153
2062
2016
1909
1846
1793
1785
1743
1778
1791
1862
1876
1920
1940
1980
2003
2064
2104
2121
2190
2264
2395
2495
2656
2864
2971
3250
3399
3453
3516
3519
3439
3345
3179
3011
2819
2643
2392
2060
1756
1449
1134
888
640
468
290
179
148
87
108
188
293
437
621
750
915
1084
1231
1407
1519
1669
1719
1810
1865
2015
2084
2186
2258
2355
2479
2492
2512
2512
2528
2511
2521
2523
2479
2466
2532
2484
2478
2487
2507
2417
2356
2330
2259
2245
2227
2183
2138
2184
2055
2030
2009
2002
2000
2057
2065
2087
2136
2179
2174
2192
2159
2159
2196
2163
2221
2111
2073
2075
2048
2020
1966
1927
2042
1898
1922
1942
1969
1994
2021
2013
2047
2093
2091
2108
2101
2063
2031
2039
1946
1908
1852
1821
1802
1826
1871
1927
1960
2045
2047
2080
2084
2106
2116
2124
2134
2160
2170
2265
2238
2295
2320
2338
2323
2306
2232
2179
2049
1955
1850
1792
1740
1745
1799
1867
1897
1942
2015
2099
2147
2175
2184
2194
2197
2200
2203
2168
2172
2112
2155
2138
2139
2149
2140
2089
2055
2024
1957
1901
1887
1875
1915
1903
1954
1973
2147
2073
2127
2099
2100
2101
2059
2031
2016
1996
1979
1954
1938
1922
1859
1825
1761
1686
1656
1566
1519
1490
1504
1507
1534
1607
1655
1749
1868
1943
1976
2005
1956
1907
1851
1828
1776
1750
1741
1755
1779
1792
1803
1818
1880
1897
1962
1984
2017
2082
2099
2136
2186
2252
2325
2429
2514
2584
2635
2591
2490
2370
2256
2152
2078
1968
1910
1874
1825
1823
1927
1888
1926
1957
2003
2002
2019
2012
2071
2085
2104
2113
2116
2131
2126
2122
2123
2142
2199
2184
2256
2369
2367
2399
2350
2323
2246
2170
2096
1996
1933
1855
1815
1782
1782
1755
1767
1768
1737
1744
1793
1782
1879
1875
1935
2029
2040
2115
2176
2224
2246
2274
2299
2302
2244
2144
2098
2055
1988
1923
1933
1916
1906
1873
1891
1865
1904
1833
1863
1879
1913
1950
1978
2036
2031
2198
2136
2159
2176
2101
2125
2083
2103
2160
2219
2334
2340
2380
2349
2358
2294
2223
2191
2127
2103
2072
2011
2015
1956
1906
1895
1875
1870
1895
1943
2027
1999
2064
2057
2065
2051
2043
2013
1970
1916
1848
1829
1847
1926
1948
1951
1994
1996
2009
1982
1980
1961
1948
1975
1995
2076
2092
2152
2144
2163
2127
2102
2052
2016
1978
1902
1854
1800
1789
1762
1793
1822
1900
1980
2068
2107
2154
2160
2151
2158
2167
2163
2163
2201
2092
2050
2021
1980
1928
1892
1874
1843
1847
1898
1865
1856
1832
1812
1797
1829
1869
1956
2010
2120
2205
2262
2378
2463
2552
2628
2659
2632
2538
2385
2262
2162
2066
1929
1838
1730
1673
1604
1554
1491
1464
1483
1566
1667
1769
1902
2016
2135
2207
2352
2327
2318
2297
2251
2203
2166
2096
2023
1992
1954
1973
1934
1941
1946
1943
1962
2042
1995
2182
2026
2019
2070
2130
2139
2167
2209
2171
2107
2034
1931
1847
1801
1739
1740
1719
1888
1721
1730
1795
1805
1881
1903
2005
2011
2044
2047
2082
2124
2155
2218
2266
2328
2363
2374
2372
2326
2285
2239
2199
2176
2115
2095
1967
1900
1845
1819
1794
1778
1803
1790
1816
1822
1841
1843
1861
1919
1976
2025
2088
2125
2188
2167
2195
2243
2224
2232
2214
2181
2158
2076
2027
2023
1949
1896
1910
1888
1880
1871
1865
1866
1824
1862
1849
1909
2002
2087
2209
2260
2294
2342
2336
2331
2297
2178
2103
2040
1895
1849
1751
1720
1682
1651
1615
1602
1597
1614
1656
1703
1776
1863
1986
2135
2221
2352
2424
2523
2567
2628
2643
2660
2664
2589
2537
2443
2342
2200
2067
1985
1880
1830
1737
1702
1664
1718
1598
1632
1633
1703
1736
1804
1833
1864
1870
1917
2049
1971
2072
2139
2208
2263
2344
2352
2365
2320
2241
2176
2047
1922
1771
1674
1560
1529
1534
1620
1659
1708
1789
1830
1883
1941
1998
2053
2125
2162
2151
2147
2181
2150
2168
2199
2156
2137
2108
2100
2047
2017
1999
1979
1987
2017
1999
2028
2020
2031
2050
2062
2098
2160
2208
2243
2241
2247
2272
2287
2352
2370
2432
2417
2422
2365
2255
2155
1989
1880
1700
1615
1515
1454
1474
1442
1478
1536
1689
1800
1768
1829
1898
1963
2066
1988
2000
2039
2048
2102
2153
2255
2385
2502
2617
2706
2790
2886
2942
3039
3134
3182
3187
3203
3203
3196
3168
3103
3126
2912
2736
2498
2219
1917
1623
1380
1179
949
743
582
457
387
311
277
274
291
362
435
548
644
791
912
1043
1204
1355
1532
1687
1946
1975
2162
2280
2408
2504
2563
2607
2604
2616
2604
2594
2647
2572
2571
2544
2487
2476
2411
2328
2267
2255
2195
2157
2120
2140
2134
2180
2117
2142
2127
2123
2163
2144
2118
2096
2049
2011
1976
1973
1923
1919
1923
1933
1939
1955
1999
2070
2101
2157
2171
2173
2171
2116
2113
2102
2099
2110
2055
2062
2031
2020
1996
2016
2040
2042
2156
2188
2209
2254
2281
2293
2319
2275
2260
2188
2103
2018
1959
1864
1863
1763
1749
1764
1808
1812
1885
1911
1991
2032
2064
2096
2164
2183
2241
2241
2232
2232
2195
2159
2153
2164
2172
2140
2106
2075
2061
1998
1997
1954
1901
1926
1928
1970
2042
2064
2085
2069
2048
2071
2051
2051
2072
2093
2088
2095
2117
2087
2102
2116
2106
2097
2095
2112
2126
2129
2117
2103
2085
2063
2007
2015
2023
2007
2018
2028
1989
1961
1892
1842
1744
1667
1592
1550
1526
1539
1568
1622
1658
1720
1761
1775
1827
1844
1818
1800
1783
1756
1756
1735
1769
1792
1831
1881
1938
1961
2013
2050
2066
2054
2072
2191
2056
1999
1999
1976
1967
1964
1997
2018
2056
2073
2110
2132
2103
2071
2071
2023
1992
1967
2000
1980
1984
1956
1946
1940
1951
1962
1953
1996
2033
2055
2128
2155
2193
2211
2218
2227
2228
2231
2201
2222
2231
2182
2150
2141
2035
2039
1986
1958
1969
1984
2039
2091
2288
2122
2142
2155
2153
2130
2164
2139
2096
2078
2090
2115
2169
2196
2222
2238
2115
2026
1894
1817
1757
1698
1676
1694
1730
1776
1828
1875
1923
1997
2039
2063
2111
2090
2119
2157
2198
2220
2240
2277
2315
2284
2240
2223
2367
2207
2072
1978
1907
1835
1810
1766
1760
1784
1845
1870
1912
1939
1976
2015
2042
2069
2080
2103
2065
2043
2034
2021
2039
2089
2133
2150
2188
2192
2148
2128
2099
2069
1988
1982
1950
1977
2059
2042
2040
2039
2039
2045
2048
2047
2042
2021
2068
2072
2042
2064
2085
2103
2115
2068
2087
2060
2038
2040
2056
2033
2047
2075
2100
2062
2055
2039
1999
2011
2022
2065
2058
2033
2037
2000
1944
1902
1906
1888
1862
1896
1876
1908
1940
1980
2010
2009
2005
2008
1923
1901
1868
1852
1818
1849
1839
1854
1867
1925
1999
1936
1968
2010
2014
2035
2032
2041
2061
2065
2115
2097
2150
2137
2138
2147
2122
2138
2150
2143
2137
2104
2120
2100
2083
2046
2050
2079
2058
2122
2130
2133
2151
2153
2168
2151
2110
2095
1995
1919
1879
1809
1794
1793
1795
1823
1815
1821
1851
1856
1903
1990
2032
2048
2091
2090
2089
2043
2032
1995
2015
2032
2102
2123
2136
2195
2208
2199
2193
2186
2191
2208
2197
2187
2163
2151
2102
2078
2019
1920
1852
1816
1808
1783
1842
1842
1854
1875
1871
2076
1935
1931
1975
1999
2005
2038
2080
2160
2227
2287
2339
2360
2331
2280
2235
2127
2048
1960
1874
1786
1707
1698
1666
1651
1768
1818
1902
1959
2048
2110
2102
2180
2146
2152
2216
2242
2252
2282
2288
2291
2277
2246
2216
2163
2098
1983
1895
1827
1776
1686
1648
1631
1678
1715
1759
1856
1932
1992
1996
2022
2024
2031
2054
2097
2127
2261
2175
2189
2214
2130
2083
2050
2000
1943
1922
1903
1905
1926
1921
1912
1997
1920
1954
2023
1990
1992
1989
2012
1980
1967
1943
1956
1993
2075
2161
2243
2336
2416
2383
2341
2310
2239
2162
2071
2044
2070
1901
1862
1824
1898
1747
1790
1775
1818
1863
1925
1972
1984
1998
2032
2086
2157
2207
2295
2334
2354
2376
2316
2270
2267
2219
2073
2001
1953
1898
1817
1691
1633
1594
1566
1563
1626
1673
1745
1862
2017
2337
2347
2519
2667
2859
2964
3080
3207
3324
3424
3588
3501
3488
3367
3204
3018
2740
2461
2127
1758
1431
1079
822
522
304
150
28
16
9
0
116
308
481
734
920
1231
1376
1597
1729
1895
2047
2164
2280
2331
2356
2376
2340
2398
2399
2576
2480
2504
2532
2535
2548
2547
2486
2496
2400
2363
2320
2348
2311
2302
2277
2239
2206
2179
2137
2131
2136
2097
2034
2006
1950
1964
1908
1926
1977
1975
2047
2131
2158
2222
2244
2274
2273
2224
2176
2135
2112
2035
1983
1920
1894
1917
1924
1948
1993
1993
2026
2016
2031
2077
2131
2098
2069
2054
2024
1986
1959
1977
1976
1999
1998
2007
2007
2004
1950
1976
1990
2023
2058
2047
2040
2031
2066
2047
2064
2062
2039
2046
2067
2058
2096
2143
2202
2225
2246
2322
2431
2403
2384
2332
2294
2215
2127
2102
2015
1958
1908
1890
1833
1874
1844
1889
1931
1985
2035
2074
2114
2102
2105
2055
2022
2012
2006
1966
1991
2035
1983
2042
1957
2001
2001
1949
1906
1873
1815
1766
1751
1762
1823
1843
1935
1973
2055
2135
2182
2199
2228
2218
2152
2112
1963
1937
1828
1766
1748
1773
1826
1654
1619
1608
1588
1568
1558
1584
1647
1721
1831
2007
1956
2011
1997
1991
1973
1988
1970
1962
1925
1944
1974
1877
1875
1891
1911
1986
1997
2064
2123
2187
2236
2252
2267
2266
2292
2215
2184
2176
2159
2156
2166
2168
2183
2170
2124
2060
1995
1952
1954
1926
1932
1952
1919
1974
1968
1997
2086
2154
2246
2375
2326
2316
2281
2298
2203
2131
2107
2050
2045
2032
2041
1995
2016
2007
1966
1955
1923
1921
1913
1939
1936
1967
2042
2034
2089
2104
2196
2177
2194
2142
2099
2076
2008
1964
1969
1930
1897
1920
1919
1947
2070
2013
2032
2032
2008
1976
1952
1933
1944
1974
1981
2015
2038
2061
2063
2114
2148
2165
2184
2198
2201
2186
2145
2143
2128
2082
2091
2058
2056
2052
2054
2035
2028
2011
2001
1975
1959
1943
1980
1989
1974
2017
1974
1951
1921
1925
1918
1942
1938
1888
1894
1874
1840
1823
1918
1931
2011
1995
2029
2064
2063
2128
2125
2143
2176
2196
2187
2192
2190
2186
2198
2149
2133
2116
2099
2058
2023
1981
1951
1919
1903
1906
1938
2047
2038
2091
2103
2113
2092
2054
2006
1957
2094
1835
1779
1769
1712
1720
1741
1794
1856
1944
2023
2119
2191
2251
2271
2247
2220
2201
2106
2081
2079
2060
2051
2045
2078
2118
2149
2190
2186
2181
2142
2117
2055
2041
1993
1966
2011
1982
1975
1991
1997
1990
2024
2018
2040
2042
2110
2034
1999
1996
1969
1977
1936
1926
1944
1955
1951
1969
1970
1971
1968
1975
1952
1984
2011
2086
2104
2099
2110
2084
2032
1979
1920
1915
1902
1891
1945
1946
1962
1985
2035
2039
2111
2143
2176
2180
2191
2119
2119
2076
2037
2023
2033
2060
2154
2056
2056
2080
2075
2097
2048
2037
2032
2043
2037
2031
2048
2033
1979
1932
1890
1826
1787
1779
1790
1764
1747
1711
1714
1706
1748
1814
1825
1897
1898
1951
2014
2103
2164
2183
2202
2220
2218
2233
2367
2211
2212
2172
2139
2127
2138
2089
2061
2088
2007
1987
1984
1943
1941
1960
1987
1994
2010
2018
2059
1993
1974
1950
1996
1977
2057
2085
2091
2083
2055
2028
1989
1966
1963
1977
1959
1946
1914
1892
1923
1881
1890
1941
1933
2046
2104
2154
2223
2270
2326
2341
2332
2312
2243
2163
2072
2001
1962
1922
1969
1949
1993
2059
2086
2151
2202
2277
2361
2384
2442
2550
2606
2855
2815
2890
2923
2941
2933
2960
2901
2855
2771
2672
2632
2327
2144
1882
1680
1418
1189
1022
837
703
615
580
554
586
678
728
764
847
967
1074
1207
1348
1469
1604
1681
1743
1810
1872
1991
2063
2131
2238
2298
2380
2432
2483
2499
2516
2535
2516
2523
2507
2490
2485
2411
2364
2247
2157
2129
2064
2036
2024
2024
2027
2038
2053
2094
2102
2306
2119
2087
2083
2066
2068
2064
2082
2128
2109
2104
2081
2096
2089
2075
2062
2098
2123
2111
2103
2047
2083
2063
2071
2059
2063
2068
2049
2015
2008
1988
1974
1962
1943
1994
2031
2040
2084
2129
2154
2178
2177
2155
2113
2072
2019
1995
2015
1950
1982
2007
2070
2047
2063
2022
1985
1951
1929
1964
1963
2003
2048
2107
2149
2202
2240
2266
2288
2328
2215
2172
2125
2113
2062
2053
2091
2050
2061
2064
2049
2047
2030
2023
2050
2099
2111
2162
2155
2179
2063
2017
1959
1902
1896
1920
1918
1936
1941
1943
1937
1931
1887
1857
1830
1938
1779
1815
1781
1812
1867
1911
1995
2107
2131
2184
2221
2198
2116
2048
1975
1944
1874
1782
1695
1643
1610
1599
1598
1588
1624
1571
1550
1565
1575
1617
1695
1786
1856
1952
2035
2110
2211
2262
2315
2319
2298
2238
2177
2087
2032
1972
1910
1880
1843
1867
1897
1864
1818
1814
1794
1787
1805
1823
1877
1933
2023
2100
2198
2290
2374
2444
2469
2461
2437
2424
2346
2303
2274
2253
2237
2077
2042
2016
1990
2000
1972
2021
2152
1977
1952
1930
1925
1925
1983
2040
2095
2132
2192
2226
2289
2253
2225
2192
2143
2114
2015
1926
1880
1779
1739
1730
1759
1832
1879
1955
2053
2104
2144
2146
2205
2104
2058
2008
1984
2016
1991
2041
2063
2112
2082
2065
2047
2042
2019
2003
1981
2131
1959
1963
1982
1964
1973
2003
2023
2011
2051
2104
2129
2168
2183
2207
2140
2167
2162
2135
2133
2082
2085
2032
1980
1966
1944
1943
1942
1920
1867
1898
1887
1886
1855
1856
1833
1867
1903
1956
2061
2142
2248
2359
2423
2483
2499
2514
2512
2483
2434
2400
2300
2193
2044
1923
1797
1702
1599
1566
1507
1482
1439
1481
1483
1526
1552
1656
1718
1808
1904
1946
2025
2074
2101
2145
2237
2260
2291
2334
2358
2325
2348
2333
2272
2229
2160
2090
2023
1975
1947
1940
1936
1951
1970
1965
2053
1983
1937
1872
1808
1791
1858
1960
2044
2164
2207
2275
2324
2352
2359
2323
2287
2221
2128
2043
1953
1903
1858
1833
1863
1849
1874
1922
1922
1965
1984
2001
2054
2036
2056
2051
2048
2019
2024
2033
2027
1989
1971
1995
1955
1975
1970
1971
2016
2019
2056
2063
2066
1966
2055
2015
1985
1975
1970
1943
1959
1994
2031
2075
2140
2091
2099
2079
2071
2107
2046
2032
1982
1951
1919
1919
1924
1929
1987
2045
2083
2144
2184
2240
2257
2280
2304
2355
2310
2229
2171
2096
2016
1938
1890
1833
1792
1768
1762
1741
1771
1772
1815
1842
1880
1896
1960
1991
2020
2056
2047
2049
2082
2089
2096
2120
2107
2092
2053
2045
2025
1991
1913
1916
1922
1947
2057
2060
2131
2222
2288
2340
2348
2273
2238
2147
2059
1975
1906
1823
1819
1792
1733
1807
1758
1781
1736
1730
1724
1757
1763
1737
1743
1788
1810
1883
1998
2056
2172
2205
2310
2294
2331
2292
2290
2307
2273
2199
2192
2157
2103
2064
1991
1931
1855
1848
1785
1800
1832
1864
1922
1975
2057
2110
2119
2155
2207
2247
2355
2320
2298
2285
2451
2241
2183
2174
2080
2015
1993
1931
1914
1899
1888
1810
1801
1774
1752
1779
1945
1922
2028
2168
2335
2476
2582
2644
2699
2731
2774
2785
2888
2818
2839
2912
2874
2909
2885
2863
2826
2753
2699
2622
2394
2180
1939
1714
1477
1197
979
757
570
466
367
323
343
386
431
510
645
753
824
966
1080
1171
1313
1459
1618
1805
1990
2190
2316
2497
2602
2690
2754
2799
2763
2744
2672
2642
2644
2566
2549
2555
2513
2491
2480
2410
2358
2311
2249
2178
2079
2015
2021
1939
1855
1856
1857
1896
1894
1938
1995
1946
1971
1999
1977
1999
2033
2042
2060
2056
2048
2080
2081
2104
2122
2160
2113
2125
2090
2095
2068
2099
2199
2114
2149
2114
2105
2058
2049
1988
1978
1955
1922
1938
1937
1973
1995
2032
2241
2108
2159
2176
2176
2187
2201
2215
2222
2227
2160
2147
2128
2047
2046
1985
1972
2042
1972
1927
1911
1917
1900
1887
1881
1896
1943
1975
2011
2061
2181
2214
2310
2454
2367
2376
2312
2256
2184
2096
2013
1941
1891
1870
1866
1910
1931
1912
1882
1848
1852
1827
1833
1971
1920
2011
2098
2192
2240
2290
2346
2259
2233
2128
2053
1943
1891
1870
1831
1819
1840
1849
1878
1925
1916
1956
1957
1949
1956
1921
1895
1887
1881
1835
1810
1807
1698
1699
1654
1655
1673
1685
1704
1737
1732
1750
1772
1768
1812
1870
1937
2011
2078
2134
2152
2197
2179
2218
2222
2176
2151
2106
2060
2031
2005
1997
1993
2015
2053
2083
2082
2095
2047
2019
1977
1975
2045
2008
2045
2135
2148
2206
2271
2262
2231
2167
2144
2078
2040
2038
2026
2020
1982
1981
1955
1975
1991
2016
2015
2064
2042
2235
2039
2002
1993
1939
1930
1933
1959
1999
2002
2055
2082
2128
2131
2153
2141
2164
2166
2136
2115
2111
2048
2080
2104
2130
2204
2204
2205
2167
2182
2192
2177
2142
2117
2087
2062
2043
1987
1938
1907
1890
1911
1908
1910
1926
1954
1912
1852
1822
1808
1766
1779
1810
1856
1906
1940
1995
2030
2058
2074
2110
2098
2136
2147
2236
2220
2255
2234
2199
2160
2131
2088
2075
2027
1975
1927
1903
1879
1871
1840
1843
1864
1891
1970
2026
2101
2174
2248
2251
2260
2272
2231
2168
2131
2075
2082
2055
2004
1986
1957
1996
1959
1959
1947
1961
1947
1928
1920
1933
2076
2019
2050
2121
2126
2165
2161
2128
2060
1999
1959
1902
1897
1883
1877
1886
1887
1906
1946
1947
1955
1935
1922
1882
1882
1872
1892
1914
1973
2027
2111
2189
2289
2358
2394
2412
2356
2227
2106
2003
1904
1819
1749
1718
1698
1710
1731
1813
1897
1991
2016
2017
2015
2009
2010
2027
2036
2093
2137
2169
2200
2195
2200
2181
2140
2095
2065
2027
1987
1946
1903
1912
1903
1966
2049
2086
2183
2290
2296
2275
2265
2223
2179
2159
2112
2064
2048
2020
1991
1994
1996
2008
1930
1862
1799
1768
1750
1717
1694
1705
1744
1775
1839
1895
1980
2061
2100
2142
2151
2178
2159
2174
2162
2183
2171
2161
2156
2136
2152
2117
2098
2106
2066
2045
2027
2037
1999
1975
1969
1997
2052
2087
2123
2161
2194
2322
2205
2191
2164
2162
2122
2056
2031
2000
1999
1953
1943
1906
1912
1887
2049
1866
1870
1872
1910
1839
1856
1854
1851
1847
1869
1863
1885
1938
1929
1975
2112
2040
2084
2129
2132
2129
2124
2039
1992
1947
1920
1891
1862
1943
1783
1784
1789
1742
1733
1743
1735
1771
1864
1912
2045
2144
2245
2336
2449
2479
2516
2531
2494
2412
2304
2258
2168
2107
2031
2005
2044
1919
1884
1860
1834
1820
1840
1813
1820
1835
1865
1887
1922
1969
2058
2123
2217
2270
2320
2304
2291
2217
2192
2121
2029
1981
1945
1938
1919
1948
1961
1960
1928
1952
1949
2029
1990
1991
2075
2072
2052
2041
2050
2039
2084
2118
2218
2324
2402
2516
2648
2678
2758
2870
2978
3048
3344
3245
3316
3307
3265
3144
2983
2796
2546
2221
1934
1595
1290
1018
720
516
420
336
341
350
367
374
395
433
491
592
712
870
1031
1211
1379
1560
1744
1909
2048
2195
2290
2354
2396
2410
2404
2371
2353
2349
2366
2341
2339
2380
2420
2452
2468
2456
2459
2449
2402
2373
2352
2347
2314
2263
2228
2255
2228
2211
2180
2133
2091
2071
2092
2136
2187
2235
2254
2288
2242
2199
2158
2064
2009
1936
1901
1856
1842
1796
1798
1765
1794
1798
1857
1904
1930
1962
1989
2010
2007
2047
2047
2095
2104
2175
2225
2352
2462
2503
2523
2515
2419
2287
2218
2079
1995
1911
1849
1795
1784
1771
1822
1822
1827
1873
1899
1887
1892
1911
1914
1938
1975
2007
2029
2071
2088
2128
2180
2256
2286
2352
2423
2475
2488
2425
2335
2211
2082
1937
1848
1755
1722
1735
1764
1793
1827
1876
1908
1954
1937
1968
2005
2014
2057
2103
2136
2159
2176
2189
2204
2174
2149
2145
2094
2053
2034
2008
1969
1956
1911
1899
1863
1845
1855
1851
1838
1860
1840
1835
1850
1842
1891
1904
1910
1945
1962
1977
1944
1900
1842
1774
1719
1670
1649
1660
1751
1664
1698
1717
1798
1847
1888
1941
1952
1935
1907
1912
1910
1921
1958
1937
1939
1969
2048
2075
2111
2165
2193
2191
2163
2159
2181
2152
2142
2125
2120
2095
2097
2031
2037
2052
2093
2164
2161
2157
2165
2131
2106
2093
2079
2076
2106
2092
2131
2190
2124
2107
2107
2095
2105
2095
2094
2069
2095
2090
2088
2096
2096
2108
2237
2122
2138
2138
2192
2200
2234
2199
2152
2058
1984
1907
1868
1825
1802
1818
1789
1824
1820
1846
1861
1831
1843
1910
1911
1913
1922
1965
2008
2073
2116
2108
2090
2076
2042
2046
2027
2032
2054
2101
2131
2196
2183
2183
2159
2152
2162
2079
2074
2091
2133
1995
1988
1966
1968
1981
2000
2071
2039
2056
2083
2134
2160
2163
2159
2139
2102
2000
1995
1968
1956
1963
1996
1987
2002
1947
1924
1918
1857
1872
1891
1894
1904
1939
1975
1994
2048
2072
2096
2080
2063
2039
2057
2047
2060
2111
2096
2131
2119
2120
2126
2111
2105
2135
2160
2146
2141
2092
2058
1973
1951
1899
1891
1888
1887
1863
1880
1844
1822
1759
1758
1822
1809
1906
2050
2102
2169
2191
2280
2320
2257
2254
2225
2200
2126
2076
2048
1955
1891
1879
1871
1897
1884
1909
1903
1895
1924
1911
1891
1900
1941
1913
1955
2049
2146
2169
2210
2244
2255
2288
2231
2204
2163
2116
2019
1973
1902
1888
1835
1828
1830
1845
1866
1952
1988
2066
2090
2112
2043
1980
1962
1905
1906
1938
2000
1986
2072
2042
2079
2090
2049
2063
2059
2015
2044
2010
1980
1981
2040
2016
2031
2047
2071
2094
2113
2127
2144
2161
2112
2098
2071
2008
2012
1962
1950
1936
1951
1959
1963
1973
1927
1918
1929
1936
1952
1945
1938
1968
1983
2000
2035
2081
2083
2162
2201
2278
2290
2284
2246
2200
2150
2073
2046
2039
2010
1959
1903
1866
1783
1788
1792
1777
1804
1840
1817
1824
1839
1863
1922
1954
2028
2071
2245
2151
2175
2179
2204
2223
2258
2331
2399
2489
2563
2542
2511
2452
2362
2243
2121
2022
1915
1791
1696
1579
1570
1542
1563
1591
1663
1775
1838
1873
1987
2035
2067
2076
2074
2011
1975
1919
1887
1863
1859
1857
1847
1883
1860
1891
1899
1932
1933
1944
1966
1988
2028
2054
2125
2175
2260
2301
2351
2366
2354
2310
2240
2134
2067
1956
1894
1841
1785
1776
1825
1852
1920
1962
1984
2032
2044
1994
1987
2033
2016
2047
2085
2125
2166
2167
2215
2186
2166
2133
2110
2127
2049
2007
1982
1875
1814
1808
1767
1760
1787
1814
1878
1976
2019
2087
2104
2152
2210
2316
2393
2503
2525
2576
2519
2456
2342
2236
2102
1995
1897
1819
1753
1788
1826
1895
2003
2150
2328
2508
2663
2863
3024
3167
3291
3407
3460
3476
3421
3358
3186
3087
2845
2536
2232
1883
1532
1163
880
571
309
80
5
7
0
0
0
62
207
364
548
745
962
1182
1381
1578
1788
1923
2071
2168
2270
2335
2509
2512
2584
2624
2643
2619
2588
2624
2505
2498
2454
2426
2423
2402
2391
2402
2356
2382
2378
2353
2326
2316
2260
2265
2255
2312
2247
2178
2148
2082
2061
1983
1954
1968
1849
1810
1783
1784
1778
1827
1865
1907
2003
2015
2050
2031
2032
2049
2038
2047
2044
2097
2031
2115
1971
1974
1983
2023
2068
2128
2170
2179
2198
2243
2220
2228
2208
2216
2233
2211
2187
2154
2143
2143
2111
2095
2124
2061
1993
1934
1964
1961
1975
1998
2038
2026
2040
2070
2089
2083
2100
2095
2095
2048
2000
1954
1939
1964
1904
1908
1911
1961
1935
1951
1955
1959
1970
1995
2055
2070
2094
2110
2173
2204
2223
2263
2249
2242
2230
2208
2194
2140
2126
2081
2053
2017
1972
1975
1942
1947
1946
1945
1952
1953
1974
1956
1933
1938
1968
2009
2081
2122
1984
1959
1980
1974
1930
1894
1886
1812
1811
1740
1668
1624
1598
1579
1585
1617
1632
1709
1778
1861
1878
1933
1953
1900
1874
1827
1788
1766
1780
1766
1792
1852
1848
1889
1934
1962
2000
2036
2031
1983
1954
1947
1977
1979
2114
2156
2219
2290
2342
2387
2410
2440
2342
2335
2278
2190
2121
2069
2119
2079
2096
2112
2099
2095
2088
2102
2045
2001
1987
2008
1997
2040
2038
2076
2153
2167
2183
2179
2139
2080
2031
2003
1921
1893
1859
1847
1817
1824
1869
1931
1996
2029
2047
2070
2083
2106
2113
2150
2155
2205
2290
2350
2375
2513
2409
2331
2223
2137
2037
1884
1830
1724
1686
1659
1663
1741
1791
1844
1931
1969
2042
2032
2047
2069
2087
2110
2119
2158
2151
2159
2164
2140
2143
2156
2108
2127
2172
2207
2242
2276
2239
2199
2165
2130
2087
2019
1941
1919
1849
1847
1795
1772
1792
1777
1810
1851
1910
1918
1930
1923
1908
1867
1912
1887
1950
2072
2184
2307
2442
2470
2556
2549
2527
2453
2299
2232
2038
1921
1863
1791
1741
1718
1695
1693
1688
1633
1611
1582
1601
1652
1750
1782
1978
1975
2030
2082
2113
2171
2243
2304
2343
2355
2343
2315
2283
2261
2225
2160
2120
2088
2009
1935
1855
1782
1735
1708
1719
1824
1892
1976
2053
2155
2207
2254
2232
2252
2158
2109
2062
2006
1970
1956
1932
2023
1974
1974
1986
1977
1955
1955
2093
2018
2004
2047
2049
2035
2064
2048
2052
2049
2064
2065
2072
2040
2007
1991
1962
1952
1999
2005
2088
2115
2108
2062
1957
1894
1820
1785
1787
1844
1884
1970
2047
2067
2142
2184
2175
2206
2198
2182
2215
2133
2107
2096
2100
2078
2071
2064
2052
2047
1991
1966
1907
1863
1790
1826
1811
1824
1872
1943
2002
2038
2098
2160
2171
2240
2239
2217
2175
2115
2069
2044
1995
1959
1927
1902
1896
1891
1906
1945
2006
1986
2000
2008
2005
2014
2001
1996
2048
2095
2211
2252
2279
2288
2257
2218
2134
2059
2002
1960
1960
1895
1881
1883
1898
1922
1892
1894
1911
1868
1878
1882
1911
1946
2037
2091
2179
2185
2152
2081
2040
1995
1959
1982
1908
1887
1922
1896
1911
1922
1971
1985
2053
2031
2034
2036
2043
2052
2064
2099
2107
2088
2069
2054
2053
2039
2163
2005
2023
2033
2061
2072
2076
2124
2134
2148
2181
2151
2140
2101
2038
1957
1856
1761
1716
1728
1714
1775
1815
1902
1949
1992
2047
2207
2080
2065
2062
2090
2124
2181
2204
2211
2215
2227
2218
2197
2174
2185
2184
2178
2118
2078
2062
2043
2053
2028
2024
1993
2024
1944
1930
1926
1927
1931
1956
2034
2079
2150
2274
2311
2366
2351
2386
2459
2500
2546
2575
2652
2740
2848
2929
2985
3032
3063
3010
2922
2795
2660
2418
2032
1711
1391
1087
840
574
449
373
370
334
371
379
408
444
570
743
895
1069
1227
1418
1706
1894
2071
2208
2343
2428
2504
2537
2587
2680
2679
2766
2770
2820
2812
2812
2733
2679
2581
2499
2367
2176
2047
1950
1928
1838
1811
1835
1882
1949
1982
2017
2009
2028
2015
2030
2105
2102
2109
2148
2148
2167
2172
2167
2137
2190
2017
1996
1992
1960
1990
2032
2042
2079
2178
2125
2152
2147
2176
2131
2112
2088
2050
2029
1998
1984
1951
1951
1968
2034
2063
2095
2134
2114
2098
2043
2022
1975
1989
2005
2036
2021
2052
2034
2008
1958
1921
1897
1922
1960
1935
1902
1916
2021
2048
2182
2175
2240
2244
2231
2191
2188
2149
2141
2127
2149
2162
2167
2147
2141
2132
2118
2099
2076
2084
2105
2129
2143
2168
2160
2160
2165
2176
2151
2149
2124
2063
2033
1907
1863
1799
1768
1704
1716
1682
1715
1756
1809
1838
1808
1800
1786
1746
1697
1728
1718
1739
1798
1801
1858
1874
1891
1910
1938
1935
1878
1815
1799
1755
1723
1727
1710
1734
1793
1849
1877
1911
1974
1994
2037
2053
2062
2113
2115
2157
2170
2175
2197
2212
2208
2227
2210
2237
2215
2218
2208
2256
2259
2292
2313
2327
2288
2225
2172
2070
2005
1976
1930
1933
1920
1954
1978
2023
2047
2041
2037
2049
2000
1985
1951
1944
1969
1950
2021
2046
2080
2076
2076
2084
2058
2038
1998
1969
1969
1980
2012
2118
2119
2159
2193
2195
2214
2203
2235
2230
2189
2108
2055
2001
2024
1938
1879
1849
1888
1911
1915
1965
1977
1983
2026
2047
2128
2195
2236
2295
2319
2296
2410
2158
2066
1995
1940
1863
1830
1760
1792
1795
1792
1815
1889
1943
1990
2061
2080
2094
2069
2056
2068
2137
2147
2215
2284
2420
2421
2419
2415
2348
2233
2123
2020
1949
1872
1798
1774
1749
1755
1751
1770
1791
1830
1866
1892
1911
1952
1968
1986
2009
2050
2057
2083
2119
2150
2229
2275
2327
2352
2333
2306
2227
2143
2085
2039
1961
1890
1832
1776
1711
1673
1667
1695
1682
1732
1779
1851
1948
1979
2010
2088
2165
2158
2168
2192
2255
2289
2282
2280
2282
2245
2236
2181
2155
2127
2098
2052
1977
1892
1830
1779
1795
1911
1832
1876
1874
1881
1943
1992
2029
2067
2129
2213
2191
2194
2193
2159
2114
2072
2046
2040
1995
1942
1896
1888
1842
1823
1824
1859
1865
1900
1955
2003
2169
2139
2169
2168
2207
2270
2320
2383
2424
2387
2330
2247
2183
2081
2006
1952
1813
1757
1752
1682
1650
1660
1698
1725
1792
1890
1931
1995
2041
2071
2138
2108
2092
2103
2141
2255
2391
2450
2495
2447
2386
2253
2141
2080
1948
1888
1797
1763
1734
1717
1712
1745
1755
1790
1844
1879
1953
1936
1936
1935
1913
1939
1980
2063
2174
2281
2350
2395
2402
2336
2265
2241
2079
2023
1967
1937
1850
1814
1822
1824
1828
1833
1832
1830
1824
1804
1809
1816
1838
1900
1999
2084
2425
2355
2406
2442
2388
2281
2192
2128
2058
2016
1921
1880
1852
1848
1843
1874
1895
1880
1901
1880
1874
1971
2023
2133
2239
2384
2448
2500
2495
2428
2344
2178
2048
1941
1855
1767
1698
1684
1703
1720
1752
1793
1853
1895
1904
1944
1916
1911
1888
1863
1877
1950
2071
2172
2328
2362
2423
2416
2381
2329
2262
2171
2186
2172
2224
2283
2413
2503
2636
2722
2817
2912
3023
3068
3071
3014
2924
2735
2571
2409
2252
2081
1831
1644
1424
1219
1010
794
635
578
512
507
572
627
703
806
918
1128
1227
1353
1473
1595
1770
1855
1974
2072
2171
2378
2415
2477
2513
2533
2555
2576
2603
2576
2530
2477
2399
2353
2309
2278
2247
2229
2186
2155
2134
2120
2080
2063
2040
2022
1983
1950
1947
1946
1991
2001
2027
2011
2006
2008
2016
2040
2054
2113
2156
2216
2262
2291
2295
2291
2203
2091
1959
1887
1818
1771
1793
1832
1888
1971
2064
2090
2128
2176
2191
2202
2255
2334
2399
2459
2407
2360
2246
2162
2076
1971
1903
1771
1709
1661
1663
1708
1716
1763
1825
1922
1996
2026
2067
2126
2143
2205
2260
2335
2328
2371
2358
2362
2283
2249
2192
2164
2085
2009
1924
1847
1779
1735
1737
1759
1830
1883
1936
2007
2072
2114
2114
2129
2143
2099
2108
2091
2097
2162
2241
2233
2210
2211
2114
2023
1988
1875
1858
1820
1815
1808
1808
1807
1818
1815
1814
1813
1843
1808
1810
1776
1758
1764
1721
1715
1723
1703
1714
1733
1729
1719
1707
1747
1748
1773
1797
1842
1874
1921
1975
2019
2064
2120
2115
2165
2167
2182
2130
2093
2035
2004
1944
1961
1967
1967
2036
2055
2087
2120
2136
2161
2164
2184
2171
2196
2255
2290
2354
2348
2347
2385
2297
2295
2256
2228
2211
2158
2113
2087
2096
2037
2032
2045
2001
2015
1962
1935
1916
1904
1879
1882
1892
1924
1981
2022
2077
2148
2128
2106
2081
2092
1999
1945
1888
1866
1851
1892
1929
1983
2011
2066
2048
2041
2039
2043
2007
2014
2008
2009
2006
1996
2019
1994
2047
2059
2122
2281
2413
2470
2525
2500
2432
2312
2221
2123
2030
1938
1814
1767
1726
1721
1687
1729
1715
1731
1767
1803
1864
1867
1905
1947
2011
2095
2166
2251
2310
2335
2304
2227
2211
2173
2139
2105
2070
2084
2059
2053
2036
2016
2014
1998
1972
1958
1980
1929
1929
1927
1920
1893
1897
1914
2015
2079
2242
2387
2503
2592
2612
2487
2472
2191
2072
1917
1743
1664
1597
1545
1513
1507
1550
1594
1652
1678
1796
1814
1886
1891
1960
1992
2045
2082
2146
2195
2238
2288
2298
2263
2259
2207
2158
2111
2080
2045
2012
1996
1987
1988
2011
2019
2033
2034
2032
1961
1890
1760
1725
1718
1801
2070
2200
2382
2549
2698
2767
2727
2650
2487
2321
2168
1980
1880
1769
1699
1663
1644
1687
1710
1747
1788
1810
1815
1796
1782
1751
1767
1803
1881
1956
2022
2102
2119
2168
2143
2156
2110
2091
2058
2062
2000
2018
2007
2030
2030
2039
2040
2055
2064
2065
2071
2113
2082
2076
2176
2161
2195
2247
2313
2307
2259
2167
2081
1922
1871
1768
1715
1714
1680
1680
1695
1735
1768
1828
1842
1888
1951
2035
2149
2227
2313
2406
2472
2513
2474
2416
2375
2299
2192
2096
1987
1928
1865
1819
1809
1824
1822
1826
1844
1864
1895
1898
1930
1976
2055
2062
2087
2152
2344
2280
2328
2352
2316
2295
2146
2057
2000
2001
1896
1798
1735
1703
1706
1665
1688
1707
1744
1773
1792
1850
1867
1891
1911
1947
1989
2042
2076
2132
2181
2214
2267
2223
2187
2144
2086
2047
2003
2008
2007
1991
2009
2002
2033
2041
2096
2152
2162
2173
2168
2176
2140
2107
2061
2047
2043
2071
2104
2097
2079
2076
1995
1931
1917
1896
1835
1840
1863
1889
1944
1999
2044
2085
2121
2103
2110
2091
2035
2009
1991
1998
2023
2069
2052
2102
2043
2047
2031
2007
1969
1942
1944
1880
1903
1944
2003
2082
2230
2297
2347
2330
2356
2383
2436
2501
2562
2639
2759
2854
2952
3037
3095
3136
3143
3081
2970
2825
2683
2551
2183
1963
1726
1421
1046
815
624
478
367
279
274
259
363
425
717
765
928
1078
1267
1492
1614
1722
1817
1871
1994
2039
2154
2164
2256
2319
2370
2431
2486
2615
2558
2578
2617
2610
2632
2605
2580
2537
2517
2494
2520
2466
2468
2427
2384
2291
2151
2045
1962
1867
1796
1745
1729
1755
1776
1816
1895
1931
1943
1987
2019
1975
2113
2130
2144
2154
2173
2180
2190
2153
2130
2096
2053
2050
1996
1960
1945
1963
1961
1967
2013
2032
2064
2082
2120
2181
2240
2312
2436
2361
2342
2264
2103
1978
1869
1806
1727
1700
1727
1757
1779
1790
1834
1856
1896
1938
2018
2079
2092
2244
2242
2327
2357
2418
2375
2335
2262
2208
2136
2109
2058
2038
2019
2031
2026
2032
2010
2002
2087
1999
1987
1979
2022
2038
2090
2134
2243
2274
2309
2281
2210
2094
1959
1786
1704
1657
1651
1658
1715
1775
1807
1822
1833
1830
1853
1882
1885
1981
1948
2009
2024
2080
2099
2082
2017
1957
1856
1777
1704
1614
1595
1602
1660
1639
1697
1727
1770
1824
1862
1912
1908
1929
1917
1964
2024
2076
2152
2231
2296
2372
2380
2285
2236
2161
2102
2022
1941
1899
1863
1839
1880
1909
1950
1988
2040
2052
2071
2064
2071
2074
2129
2150
2193
2209
2277
2260
2245
2200
2144
2120
2088
2044
2024
1998
1989
2070
1975
1981
2015
2033
2070
2076
2083
2094
2070
2047
2067
2075
2097
2100
2103
2097
2077
2035
1996
1951
1932
1911
2083
1887
1930
1946
2026
2044
2214
2143
2264
2262
2320
2370
2393
2383
2314
2239
2143
2024
1943
1875
1844
1842
1785
1743
1728
1733
1737
1735
1744
1836
1835
1874
1933
1982
2063
2109
2144
2148
2177
2199
2186
2181
2123
2082
2014
2009
2050
2082
2128
2163
2156
2180
2130
2123
2086
2047
2019
2016
2002
2064
2037
2049
2093
2055
2077
2048
2018
2000
1992
1985
2014
2044
2088
2104
2116
2160
2173
2160
2096
2064
1970
1924
1879
1846
1819
1852
1828
1859
1875
1855
1862
1861
1901
1922
1959
1984
1982
2006
2046
2084
2130
2174
2194
2163
2141
2049
1978
1988
1877
1840
1795
1821
1824
1887
1944
2016
2112
2168
2206
2359
2194
2163
2191
2175
2201
2209
2247
2233
2237
2212
2213
2143
2077
2050
1990
1964
1958
1918
1916
1906
1912
1893
1895
1851
1839
1864
1807
1812
1836
1851
1916
1985
2079
2165
2167
2169
2145
2143
2136
2133
2155
2183
2140
2099
2124
2067
2020
2030
1981
1955
1926
1921
1922
1910
1895
1897
1925
1931
1999
2015
2050
2052
2063
2025
2006
1970
1939
1891
1904
1898
1920
1946
1965
2011
2039
2075
2086
2105
2108
2073
2051
2082
2128
2243
2311
2352
2318
2249
2177
2092
2023
1949
1883
1830
1795
1783
1759
1751
1792
1801
1847
1903
1968
2006
2030
2063
2112
2131
2177
2229
2243
2243
2252
2215
2201
2195
2180
2184
2164
2096
2067
2011
1975
1937
1899
1875
1864
1874
1887
1895
1958
1999
2048
2095
2096
2073
2031
1952
1869
1812
1790
1802
1834
1866
1903
1960
1975
2014
2050
2106
2135
2125
2109
2118
2110
2115
2095
2128
2119
2130
2147
2148
2147
2167
2249
2284
2305
2342
2350
2347
2318
2276
2217
2115
2047
1945
1843
1725
1641
1568
1552
1491
1490
1510
1557
1681
1736
1796
1879
1946
2001
2056
2071
2113
2282
2192
2187
2159
2134
2123
2094
2071
2068
2061
2055
2017
1992
1956
1960
1968
1935
1919
1910
1951
1940
1976
1960
1965
2002
2009
2045
2048
2052
2221
2037
2015
2032
2061
2139
2261
2411
2523
2583
2560
2491
2370
2222
2081
1965
1850
1746
1669
1634
1604
1598
1599
1628
1684
1720
1822
1880
1931
1992
2018
2054
2084
2124
2167
2241
2296
2331
2342
2331
2293
2256
2194
2142
2052
1996
1932
1884
1857
1858
1904
1896
1911
1944
1976
2063
2086
2195
2275
2399
2535
2606
2642
2711
2774
2855
2906
2961
3025
3067
3084
3064
3008
2919
2833
2682
2521
2327
2097
1898
1674
1459
1250
1066
1065
726
604
486
402
352
305
295
314
394
486
624
794
993
1217
1366
1542
1848
1873
2055
2146
2246
2356
2413
2563
2537
2575
2617
2656
2674
2664
2648
2582
2470
2391
2313
2211
2188
2176
2200
2248
2195
2211
2240
2226
2210
2188
2155
2143
2129
2135
2143
2150
2164
2147
2157
2169
2145
2133
2103
2070
2007
1975
1955
1950
1968
1975
2030
2087
2126
2183
2168
2172
2083
2042
2110
1978
1962
1958
1935
1926
1974
1966
1986
2041
2079
2091
2102
2139
2091
2134
2095
2073
2035
2057
2049
2059
2050
2025
2038
2042
2036
2035
2035
2035
2044
2005
2014
2031
2096
2121
2187
2215
2246
2272
2262
2225
2181
2151
2104
2045
2026
1949
1897
1853
1870
1887
1927
1984
2027
2088
2123
2159
2137
2084
2049
1968
1932
1893
1902
1896
1930
1991
1994
2015
2039
2039
2024
2005
1987
1971
1973
1975
1994
2016
2043
2080
2136
2138
2125
2117
2081
2031
2007
1954
1930
1925
1920
1889
1894
1926
1986
1988
1968
1957
1908
1875
1821
1767
1751
1678
1654
1619
1587
1577
1586
1577
1592
1616
1620
1670
1733
1754
1828
1887
1952
2030
2100
2142
2171
2185
2168
2171
2187
2152
2119
2114
2094
2054
2010
1973
1955
1928
1928
1909
1938
1973
2008
2024
2083
2097
2143
2184
2232
2279
2336
2377
2389
2406
2423
2346
2293
2255
2202
2139
2087
2033
1981
1906
1890
1924
1930
1945
1950
1968
1960
2008
1951
1994
1991
2006
1974
1939
1918
1923
1923
1930
1946
1954
1985
2011
2059
2111
2132
2145
2079
2048
2011
1971
1945
1927
1962
2032
2112
2179
2212
2273
2295
2295
2232
2200
2137
2112
2048
1999
1988
1977
1971
2004
2044
2034
2031
2019
1998
2000
2016
2020
1986
2008
2041
2052
2096
2121
2073
2058
2033
1986
1985
1979
1978
1997
1962
1925
1913
1941
1937
1944
1975
1985
1995
2004
2004
1997
2011
2016
2033
2093
2105
2110
2110
2120
2131
2176
2148
2160
2138
2122
2066
2023
1982
1959
1942
1943
1960
1947
1981
1996
2009
2009
2016
2042
2046
2075
2116
2145
2176
2195
2240
2222
2188
2190
2159
2079
2078
1967
1928
1821
1749
1703
1683
1696
1713
1774
1810
1852
1942
1976
2026
2067
2040
2019
2037
2048
2047
2058
2049
2042
2046
2049
2059
2064
2067
2088
2094
2082
2059
2042
2026
1987
1975
1969
1995
2048
2123
2208
2464
2343
2393
2353
2279
2194
2135
2010
1935
1920
1828
1798
1776
1762
1760
1770
1797
1812
1811
1845
1859
1894
1904
1936
1958
2003
2053
2152
2232
2290
2333
2351
2345
2312
2243
2143
2023
1895
1816
1794
1768
1729
1776
1799
1823
1904
1965
2008
2084
2110
2115
2152
2164
2176
2167
2129
2111
2137
2041
2009
2009
1980
1971
1972
1986
1958
1906
1886
1905
1928
1942
1984
2053
2103
2167
2198
2210
2208
2175
2130
2098
2067
2032
2008
1990
1972
1943
1939
1926
1946
1945
1971
1983
2033
2046
2055
2048
2038
2057
2014
2034
2041
2046
2027
2018
1982
1968
1947
1951
1971
2041
1978
1990
1996
2010
2112
2113
2177
2215
2208
2215
2132
2095
2034
1990
1941
1913
1919
1928
1943
1958
1972
1979
2006
2009
2023
2032
2042
2004
1976
1950
1944
1968
1998
2045
2028
2065
2060
2074
2081
2085
2076
2103
2054
2035
2032
2016
2006
2036
2049
2091
2128
2167
2193
2196
2147
2118
2096
2057
2035
2022
2031
2024
2013
2015
2049
2042
2056
2047
2043
2002
1957
1932
1863
1837
1840
1870
1895
1935
1904
1935
1962
1943
1984
1970
1976
1984
1982
1974
1981
2016
2041
2081
2098
2130
2167
2193
2200
2196
2173
2160
2092
2067
2036
1997
1979
1972
1958
1958
1971
2003
1999
1995
1975
1943
1910
1856
1827
1801
1807
1842
1835
1865
1903
1924
1947
1964
1979
2005
2005
2043
2055
2080
2102
2115
2144
2170
2207
2208
2199
2169
2095
2023
1955
1889
1860
1851
1858
1916
1960
2022
2083
2160
2233
2275
2321
2345
2347
2330
2255
2173
2089
1991
1927
1862
1821
1772
1777
1718
1712
1731
1760
1780
1816
1886
1927
1940
1987
2077
2122
2172
2214
2273
2274
2306
2240
2227
2183
2127
2066
2005
2004
2001
1992
2064
2182
2344
2491
2646
2784
2878
2969
3047
3115
3191
3267
3347
3295
3404
3338
3218
3031
2808
2537
2240
1935
1609
1308
1021
770
548
350
212
114
27
50
92
116
192
301
447
593
778
970
1145
1312
1514
1707
1896
2083
2206
2343
2445
2483
2502
2526
2543
2542
2539
2540
2535
2511
2476
2457
2432
2409
2376
2343
2283
2239
2182
2148
2119
2104
2087
2096
2111
2142
2175
2198
2215
2217
2215
2209
2195
2175
2151
2143
2135
2124
2152
2075
2065
2031
2007
2034
2047
2072
2112
2119
2139
2156
2278
2177
2181
2155
2160
2119
2096
2061
2011
1975
1928
1863
1856
1809
1783
1808
1920
1918
1973
2038
2056
2065
2079
2090
2066
2048
2029
2045
2064
2119
2134
2170
2188
2207
2208
2203
2175
2116
2066
2050
2044
2048
2049
2069
2071
2088
2069
2083
2087
2087
2105
2095
2088
2067
2013
1951
1935
1911
1896
1892
1892
1909
1915
1945
1968
2007
2048
2058
2068
2073
2074
2063
2075
2083
2098
2093
2063
2063
2057
2088
2114
2126
2148
2095
2100
2048
2016
1976
1946
1946
1939
1992
2042
2138
2157
2182
2175
2086
1997
1865
1740
1623
1548
1479
1457
1430
1449
1506
1559
1622
1678
1713
1750
1762
1758
1759
1756
1774
1820
1846
1864
1898
1922
1982
2012
2050
2120
2143
2194
2213
2215
2190
2169
2146
2165
2135
2112
2114
2086
2052
2015
2000
1954
1948
1955
1945
1961
1976
2004
2045
2092
2135
2146
2190
2203
2217
2248
2323
2351
2361
2345
2331
2291
2256
2210
2188
2144
2103
2065
1998
1950
1878
1811
1739
1695
1642
1646
1672
1733
1779
1863
1931
2024
2107
2169
2233
2274
2288
2263
2242
2233
2230
2210
2206
2173
2256
2151
2104
2064
2033
2002
1962
1967
1956
1952
2006
2004
2027
2048
2078
2124
2156
2163
2176
2102
2073
1988
1936
1909
1889
1891
1908
1930
1959
1996
2005
1994
2004
2023
2018
2040
2049
2062
2061
2078
2094
2128
2199
2215
2224
2193
2144
2066
2007
1950
1930
1937
1937
1944
1947
1960
1944
1969
1987
2019
2068
2128
2099
2123
2090
2071
2040
1990
1964
1959
1949
1939
1942
1938
1977
1985
2000
2010
2026
2083
1997
1972
1984
1975
2003
2023
2072
2091
2116
2156
2177
2162
2151
2090
2039
1984
1935
1917
1898
1886
1888
1923
1912
1952
1954
1931
1948
1945
1972
1970
2007
2052
2079
2088
2079
2091
2064
2046
2042
2031
1999
2001
1988
1975
1982
1987
1985
1979
1978
2006
1990
2013
2064
2110
2174
2205
2225
2239
2232
2168
2114
2053
1975
1913
1916
1916
1924
1938
1943
1975
1975
2003
2022
2056
2075
2065
2031
1978
1926
1918
1891
1874
1887
1914
1951
1984
2048
2089
2122
2152
2183
2163
2160
2151
2136
2131
2125
2121
2114
2064
2011
1935
1887
1830
1811
1860
1827
1859
1936
1996
2062
2112
2157
2172
2180
2148
2115
2066
2046
2019
2019
2017
2020
2015
2001
2008
2006
1993
1996
1999
1993
1981
2004
2034
1973
1978
1961
1933
1915
1915
1891
1887
1857
1859
1890
1919
1978
2029
2074
2107
2151
2129
2106
2101
2102
2114
2131
2120
2120
2106
2096
2065
2051
2033
2003
1991
1994
2003
2023
2010
2022
2019
2026
2016
1984
1993
1968
1959
1987
2002
2021
2036
2069
2088
2079
2056
2045
2000
1984
1983
1990
2039
2063
2099
2096
2112
2119
2123
2111
2067
2026
1981
1879
1936
1939
1963
1964
1984
2046
2080
2125
2078
2043
2020
1982
1945
1926
1943
1930
1940
1940
1951
1974
2008
2025
2096
2104
2122
2113
2095
2060
2028
1982
1971
1996
2010
2071
2083
2126
2162
2238
2233
2249
2231
2235
2211
2205
2189
2167
2173
2115
2121
2135
2151
2126
2109
2073
2043
2082
1975
1952
1923
1906
1885
1865
1875
1851
1846
1857
1823
1797
1767
1736
1748
1756
1775
1799
1834
1852
1898
1958
1995
2023
2035
2042
2027
2044
2067
2035
2029
2035
2047
2043
2064
2049
2064
2103
2080
2077
2092
2093
2093
2090
2092
2104
2078
2082
2043
2037
2022
2039
2063
2108
2150
2279
2230
2225
2218
2192
2143
2076
2035
1968
1909
1872
1825
1784
1746
1734
1728
1721
1734
1729
1745
1765
1801
1841
1855
1935
1952
2077
2136
2246
2365
2427
2471
2459
2456
2358
2370
2250
2174
2150
2072
2028
1991
1941
1907
1937
1936
1913
1881
1853
1854
1874
1879
1943
2035
2149
2299
2470
2640
2802
2958
3070
3143
3187
3187
3167
3156
3103
3059
3040
2943
2820
2669
2471
2247
1984
1672
1370
1116
919
731
579
478
369
298
271
279
344
405
515
600
710
834
979
1127
1282
1447
1584
1736
1875
2011
2182
2302
2399
2502
2574
2617
2665
2678
2690
2672
2654
2647
2610
2590
2590
2583
2558
2506
2437
2358
2271
2197
2106
2024
1962
1936
1911
1928
1919
1924
1950
1944
1959
1956
1963
1968
2003
2008
2047
2071
2112
2171
2216
2226
2281
2296
2306
2314
2314
2291
2230
2159
2093
2044
2000
1960
1930
1995
1930
1920
1910
1910
1920
1947
1945
1959
1935
1935
1973
1995
2037
2051
2081
2112
2138
2135
2166
2163
2159
2135
2107
2079
2039
2042
2006
2002
1992
2034
2058
2107
2152
2171
2215
2213
2208
2156
2095
2037
2008
1967
1955
1986
1979
1966
1988
1974
1961
1952
1957
1989
2030
2102
2183
2237
2274
2319
2309
2271
2219
2158
2086
2011
1956
1911
1888
1836
1813
1783
1783
1777
1808
1840
1850
1885
1904
1906
1923
1938
1970
1942
1971
1968
2021
2065
2088
2129
2136
2105
2059
2007
1992
1923
1899
1841
1813
1792
1763
1759
1782
1792
1796
1795
1799
1817
1802
1779
1741
1718
1659
1629
1650
1697
1778
1901
2070
2212
2349
2416
2474
2430
2351
2256
2146
2070
1973
1858
1755
1676
1630
1626
1639
1643
1663
1716
1781
1842
1922
1982
2045
2088
2180
2246
2317
2357
2423
2431
2431
2403
2345
2327
2261
2181
2128
2073
2031
1991
1985
1969
1968
1973
1984
1978
2003
1983
1983
2003
2037
2093
2114
2195
2236
2271
2290
2300
2296
2264
2183
2102
2031
1931
1835
1762
1700
1717
1671
1699
1767
1840
1907
2001
2082
2230
2318
2416
2482
2520
2512
2432
2346
2271
2163
2076
2016
1975
1895
1856
1810
1754
1746
1696
1698
1713
1734
1788
1813
1886
1898
1960
2012
2052
2087
2129
2170
2191
2175
2159
2102
2082
2068
2047
2058
2071
2078
2084
2085
2085
2097
2091
2078
2091
2078
2129
2159
2213
2258
2284
2283
2261
2211
2165
2115
2064
1989
1931
1874
1833
1806
1814
1807
1811
1832
1876
1911
1970
1990
2050
2082
2114
2128
2080
2090
2071
2064
2048
2015
1987
1948
1929
1920
1934
1938
1943
1920
1945
1943
1947
1945
1953
1986
2019
2055
2083
2148
2162
2140
2125
2091
2058
2040
2000
1986
1975
2005
1985
2022
2031
2047
2025
1999
1968
1942
1920
1913
1904
1901
1895
1902
1948
1984
2032
2084
2141
2192
2246
2287
2279
2236
2190
2113
2043
1988
1907
1906
1915
1952
1968
2015
1986
1976
1965
1968
1992
1967
1951
1972
1983
2019
2063
2091
2130
2131
2129
2123
2119
2096
2069
2049
2032
2000
1978
1970
1947
1939
1905
1888
1876
1878
1923
1960
1987
2030
2047
2074
2140
2078
2070
2050
2067
2056
2074
2066
2062
2049
2200
2038
2036
2038
2047
2058
2086
2084
2078
2073
1988
1932
1873
1833
1807
1791
1771
1759
1781
1811
1848
1893
1936
2009
2055
2127
2156
2173
2238
2216
2193
2138
2101
2063
2059
2070
2086
2113
2135
2143
2195
2218
2184
2145
2113
2096
2048
2013
1995
1999
1990
1983
1993
2009
2023
2045
2088
2111
2137
2136
2120
2102
2042
1985
1950
1891
1869
1889
1880
1879
1891
1888
1943
1954
2000
1988
2014
1970
1977
1955
1947
1976
1998
2011
2086
2100
2094
2100
2098
2107
2094
2087
2103
2116
2138
2146
2167
2243
2234
2243
2203
2188
2163
2106
2072
2035
2014
1966
1963
1955
1979
1974
1981
1950
1913
1898
1907
1920
1901
1928
1918
1922
1905
1905
1900
1920
1879
1869
1856
1842
1835
1840
1854
1890
1923
1951
1979
2034
2060
2072
2131
2107
2121
2107
2119
2111
2112
2100
2119
2116
2112
2112
2095
2096
2064
2039
2016
1998
1977
1945
1903
1872
1840
1859
1840
1864
1905
1958
2020
2052
2099
2105
2101
2106
2122
2104
2079
2055
2048
2041
2072
2116
2118
2141
2171
2193
2178
2173
2163
2164
2163
2159
2139
2122
2100
2087
2074
2047
2002
1976
1943
1928
1891
1850
1855
1869
1842
1853
1872
1888
1889
1932
2002
2054
2089
2150
2175
2221
2265
2313
2403
2495
2597
2695
2795
2912
3013
3120
3195
3264
3277
3305
3269
3184
3082
2885
2643
2313
1983
1626
1299
1017
771
576
427
287
206
158
159
196
256
345
464
630
821
1001
1195
1382
1541
1713
1848
1988
2171
2087
2117
2113
2141
2166
2224
2290
2376
2460
2568
2595
2655
2641
2636
2607
2581
2533
2476
2437
2385
2371
2352
2338
2341
2325
2320
2287
2252
2205
2148
2087
2015
1989
1960
1932
1915
1833
1831
1803
1815
1860
1857
1866
1852
1832
1833
1825
1848
1906
1935
1994
2047
2102
2162
2232
2256
2271
2287
2297
2313
2331
2342
2319
2312
2288
2239
2207
2149
2087
2039
1976
1928
1890
1850
1811
1814
1820
1821
1849
1863
1910
1968
2037
2102
2145
2176
2154
2143
2089
2050
2002
1992
2001
2007
2035
2055
2096
2115
2137
2163
2214
2220
2196
2172
2162
2107
2108
2071
2058
2038
2025
2007
2009
2037
2019
2003
1991
2016
2023
2006
2008
2014
2042
2071
2116
2140
2164
2183
2168
2155
2122
2072
2031
1983
1992
1944
1907
1923
1925
1936
1912
1904
1899
1884
1867
1841
1834
1820
1802
1753
1760
1827
1864
1900
1863
1982
2007
2047
2034
1996
1980
1938
1899
1878
1801
1757
1718
1666
1676
1649
1671
1685
1702
1716
1725
1709
1707
1718
1740
1749
1804
1845
1937
2004
2066
2141
2217
2257
2342
2422
2526
2544
2531
2491
2429
2325
2223
2176
2054
1995
1917
1921
1808
1764
1721
1697
1699
1732
1772
1825
1902
1988
2057
2128
2194
2234
2268
2282
2315
2345
2345
2356
2355
2368
2362
2345
2327
2279
2260
2220
2172
2110
2058
2006
1926
1860
1807
1777
1773
1771
1787
1815
1843
1887
1909
1931
1970
2009
2045
2124
2182
2246
2382
2327
2334
2284
2247
2195
2140
2065
2025
1972
1919
1832
1833
1762
1707
1699
1694
1737
1810
1903
1992
2072
2121
2185
2211
2236
2249
2264
2231
2215
2199
2179
2186
2135
2123
2087
2060
2052
2000
1961
1907
1891
1857
1853
1873
1904
1946
2006
2065
2114
2151
2166
2156
2086
2075
2007
1952
1905
1897
1886
1875
1919
1944
1968
1992
2016
2045
2044
2040
2047
2030
2037
2027
2047
2059
2065
2080
2075
2103
2104
2127
2111
2123
2143
2146
2146
2120
2093
2064
2060
2045
2021
2018
1981
1956
1961
1946
1942
1906
1891
1870
1842
1848
1876
1906
1974
2062
2128
2130
2132
2082
2072
2047
2086
2043
2002
1963
1951
1955
1971
1989
2014
2036
2080
2031
2027
2050
1980
1964
1966
1971
1990
1998
2000
2054
2080
2103
2140
2154
2183
2172
2153
2130
2111
2096
2118
2129
2129
2151
2143
2135
2110
2059
2010
1931
1879
1837
1824
1815
1833
1938
1918
1948
1985
2023
2058
2092
2103
2136
2130
2079
2051
2012
1981
1951
1976
1970
1957
1972
2020
2052
2071
2094
2125
2100
2095
2077
2045
2031
2003
1971
1976
1978
1957
1929
1938
1918
1938
1959
1973
1993
1986
1985
2000
2079
2096
2124
2136
2144
2130
2121
2083
2050
2014
2005
1942
1896
1921
1907
1913
1928
1973
2001
2003
2014
2015
2008
2013
1980
1969
1939
1946
1947
1971
2000
2032
2030
2033
2012
2035
2051
2068
2091
2126
2167
2126
2119
2104
2088
2118
2103
2101
2095
2083
2058
2032
2012
1977
1966
1947
1949
1984
1995
2045
2081
2133
2192
2242
2279
2273
2228
2159
2097
2009
1936
1896
1885
1872
1856
1862
1830
1832
1834
1889
1920
1947
1970
2011
2024
2046
2065
2096
2115
2202
2192
2198
2214
2201
2215
2209
2171
2131
2079
2024
1950
1890
1864
1842
1842
1824
1831
1852
1884
1856
1858
1838
1836
1846
1870
1919
1955
2047
2066
2081
2131
2155
2161
2143
2143
2119
2066
2028
2011
1958
1877
1832
1786
1742
1735
1801
1807
1902
1905
1944
1984
2021
2041
2063
2122
2157
2184
2275
2360
2450
2488
2496
2481
2438
2346
2309
2239
2170
2117
2065
2007
1963
1923
1844
1776
1710
1657
1633
1664
1613
1619
1639
1671
1711
1722
1744
1813
1892
2010
2109
2238
2294
2371
2386
2405
2407
2397
2382
2359
2288
2240
2171
2130
2114
2077
2039
2033
2012
2000
2022
2061
2134
2246
2338
2450
2569
2705
2827
2976
3161
3302
3443
3522
3568
3514
3385
3170
2911
2601
2276
1920
1545
1166
848
539
324
160
50
0
0
0
45
153
296
470
683
912
1127
1338
1507
1694
1814
1914
1978
2031
2065
2107
2161
2248
2302
2366
2405
2431
2486
2510
2540
2560
2559
2557
2560
2533
2518
2503
2496
2489
2471
2479
2456
2438
2389
2329
2256
2167
2092
2027
2004
2010
2014
2007
2034
2011
2007
1998
1971
1960
1956
1917
1895
1930
1959
2016
2028
2064
2085
2117
2148
2153
2131
2120
2096
2072
2067
2049
2040
2014
2019
2009
2037
2044
2041
2040
2036
2026
2006
2073
2043
2058
2047
2033
2042
1986
1971
1971
1972
1970
1984
1993
2014
2045
2068
2074
2071
2090
2109
2099
2111
2133
2141
2200
2219
2249
2226
2159
2247
2175
2140
2090
2062
2047
2032
2036
2036
2047
2040
2048
2025
2017
2027
2007
1996
1986
1962
1958
1966
1983
2014
2071
2102
2136
2161
2146
2107
2063
2025
1974
1955
1906
1878
1873
1871
1875
1901
1903
1946
1966
1994
2032
2058
2090
2120
2132
2121
2105
2046
1956
1876
1815
1747
1692
1686
1664
1648
1666
1648
1647
1683
1680
1697
1719
1730
1744
1733
1728
1715
1710
1723
1756
1792
1842
1879
1946
2000
2044
2091
2138
2159
2173
2169
2186
2195
2199
2219
2207
2185
2162
2128
2110
2113
2099
2083
2063
2090
2103
2109
2095
2097
2081
2047
2039
1986
1963
1959
1993
1987
2041
2072
2125
2122
2130
2141
2123
2150
2131
2121
2100
2091
2093
2105
2122
2120
2111
2068
2053
2032
1981
1956
1940
1942
1954
1948
1974
1987
1995
2010
1999
2007
2002
1996
1992
2002
2014
2037
2039
2142
2047
2094
2152
2183
2208
2243
2224
2207
2174
2131
2082
2075
2089
2176
2145
2129
2123
2136
2103
2092
2074
2071
2047
2020
1991
1963
2095
1935
1883
1878
1888
1893
1920
1966
1987
2071
2086
2106
2126
2107
2100
2080
2047
2014
1991
1955
1951
1935
1990
2022
2032
2040
2067
2032
2042
2072
2119
2060
2047
2047
2033
2075
2062
2079
2094
2100
2108
2082
2063
2009
1986
1921
1928
1920
1923
1949
1971
2045
2088
2120
2121
2109
2085
2049
2048
2016
2009
1984
1961
1954
1985
1999
2005
2000
1991
1991
1978
1965
1960
1948
1930
1918
1902
1947
1942
2016
2033
2054
2084
2075
2082
2085
2117
2052
2028
2013
2000
1990
2002
2026
2016
2025
1992
1979
1973
1960
1953
1988
2003
2047
2099
2142
2173
2198
2363
2208
2208
2161
2119
2062
2014
1977
1953
1943
1969
2010
2032
2062
2056
2016
1991
1952
1936
1915
1904
1911
1903
1912
1885
1878
1902
1961
1973
2001
2042
2063
2102
2144
2179
2170
2167
2119
2053
1954
1881
1829
1802
1827
1806
1832
1838
1860
1860
1895
1908
1962
2016
2061
2111
2194
2240
2302
2338
2331
2311
2271
2248
2204
2174
2118
2078
2039
2012
2002
1987
1971
1967
1959
1994
2002
2032
2062
2069
2083
2090
2064
2019
1984
1920
1895
1893
1898
1896
1920
1936
1978
2003
1996
2006
1983
1999
2030
2059
2091
2118
2105
2077
2051
2073
2039
2021
1980
1976
1958
1965
1960
1943
1970
1978
1985
2000
2013
2021
2035
2067
2064
2072
2067
2072
2059
2052
2015
2012
2036
2044
2079
2121
2160
2199
2217
2188
2163
2123
2086
2047
1968
1948
1944
1949
1979
2012
2034
2051
2070
2104
2071
2059
2070
2061
2050
2021
1987
1987
1963
1953
1935
1915
1931
1953
1955
1984
1998
2103
1983
1989
1959
1953
1976
2008
2030
2060
2067
2088
2079
2042
1995
1933
1906
1873
1824
1813
1822
1848
1892
1948
2007
2116
2126
2131
2111
2027
1954
1902
1864
1873
1898
1930
1981
2032
2071
2132
2144
2160
2167
2169
2166
2183
2129
2097
2066
2062
2080
2078
2088
2082
2071
2063
2051
2031
2020
2024
1983
1971
1958
1944
1930
1952
1975
1986
2036
2059
2095
2071
2075
2088
2068
2051
2032
2047
2031
2002
1988
2022
1993
2020
2045
2028
2052
2049
2042
2007
1976
1964
1939
1951
1975
2032
2066
2144
2185
2329
2339
2440
2529
2628
2708
2796
2900
2980
3076
3192
3292
3335
3382
3408
3349
3252
3063
2811
2524
2167
1801
1449
1106
788
560
313
135
16
0
3
43
62
158
305
439
605
812
1014
1202
1424
1584
1738
1897
2016
2128
2235
2336
2375
2338
2345
2378
2404
2452
2503
2553
2599
2629
2679
2679
2688
2659
2634
2597
2538
2456
2370
2302
2229
2176
2140
2089
2048
2035
2006
2014
2019
2034
2052
2068
2080
2080
2101
2125
2107
2100
2079
2080
2085
2088
2078
2078
2063
2016
1951
1911
1918
1912
1940
1968
2002
2019
2087
2037
2058
2045
2049
2051
2044
2036
2053
2094
2139
2185
2216
2243
2227
2216
2176
2134
2072
2024
1962
1936
1864
1852
1825
1851
1909
1987
2087
2168
2218
2240
2273
2250
2213
2157
2084
2040
1982
1922
1911
1880
1869
1886
1898
1905
1915
1938
1989
1979
1986
2003
2017
2040
2069
2127
2238
2252
2282
2307
2303
2300
2251
2225
2191
2146
2128
2111
2096
2095
2087
2090
2049
2005
1983
1927
1889
1840
1796
1777
1954
1807
1833
1904
1929
1949
1974
1988
1991
1953
1923
1872
1847
1806
1795
1795
1803
1817
1822
1839
1847
1842
1829
1801
1767
1715
1686
1646
1643
1649
1657
1692
1730
1793
1860
1939
2001
2027
2039
2038
2016
1968
1921
1898
1892
1884
1907
1914
1949
1986
2023
2056
2090
2125
2126
2138
2108
2119
2120
2138
2138
2155
2232
2267
2294
2299
2340
2344
2377
2335
2305
2271
2240
2220
2200
2214
2166
2158
2160
2127
2109
2059
2000
1948
1906
1917
1943
1950
1981
2040
2079
2119
2128
2085
2076
2028
1996
1919
1889
1894
1856
1865
1884
1899
1896
1940
2008
1982
2021
2032
2056
2080
2113
2114
2096
2092
2109
2119
2127
2134
2162
2162
2206
2170
2180
2100
2050
2005
1985
1929
1912
1897
1879
1890
1927
1976
1996
2076
2121
2176
2215
2227
2192
2207
2192
2187
2179
2166
2147
2096
2024
1948
1900
1869
1843
1808
1803
1833
1857
1835
1849
1880
1927
1959
2023
2055
2091
2135
2180
2189
2208
2199
2192
2260
2181
2208
2197
2159
2116
2091
2028
1979
1951
1916
1891
1882
1859
1863
1874
1878
1876
1931
1973
2008
2021
2064
2079
2148
2138
2142
2140
2130
2103
2065
2014
1997
1931
1898
1907
1877
1848
1855
1856
1844
1879
1869
1863
1889
1956
1966
2064
2085
2151
2204
2258
2264
2280
2276
2236
2179
2124
2071
1991
1926
1884
1835
1842
1861
1901
1969
1984
2003
1995
1998
2015
2014
2024
1999
2002
2001
1998
1987
1995
2013
2015
2052
2073
2100
2127
2337
2134
2160
2118
2123
2062
2050
2038
2028
2032
2043
2049
2088
2072
2089
2079
2122
2084
2069
2092
2094
2098
2089
2103
2110
2065
2056
2031
1986
1919
1865
1841
1745
1727
1753
1779
1851
1916
1975
2025
2061
2059
2058
2053
2055
2071
2044
1988
1984
1982
2024
1999
2043
2076
2104
2140
2160
2159
2145
2130
2115
2098
2080
2090
2091
2095
2104
2095
2094
2088
2073
2033
1983
1950
1942
1924
1917
1916
1961
1936
1979
2008
2031
2047
2034
2007
1973
1936
1909
1918
1931
1953
1974
1995
2038
2068
2109
2151
2184
2204
2229
2190
2167
2139
2082
2054
2026
2007
2011
2008
2038
2021
2072
2049
2034
2012
2026
2015
2031
2019
2037
2031
2053
2061
2076
2084
2077
2088
2069
2047
2023
1985
1952
1901
1976
1924
1953
1972
1991
2025
2062
2093
2129
2135
2180
2190
2140
2151
2162
2174
2174
2190
2174
2158
2138
2094
2035
1971
1918
1843
1767
1689
1643
1610
1602
1620
1651
1694
1763
1799
1872
1951
2022
2074
2157
2175
2159
2143
2146
2132
2100
2082
2048
2018
1992
1987
1972
1946
1955
1940
1945
1928
1928
1948
1999
2014
2091
2146
2276
2270
2284
2281
2272
2189
2132
2099
2085
2012
1976
1958
1908
1925
1950
1975
2002
2032
2051
2088
2096
2099
2077
2044
2030
2040
2060
2013
2008
1994
1967
1970
1968
1932
1921
1892
1867
1863
1869
1912
1931
1971
2013
2059
2100
2132
2131
2167
2141
2146
2147
2158
2174
2188
2236
2338
2379
2445
2554
2651
2767
2869
2984
3049
3119
3160
3189
3198
3187
3182
3095
2987
2836
2649
2391
2108
1818
1535
1248
967
703
466
276
142
65
28
60
134
257
375
532
696
850
992
1114
1263
1410
1559
1781
1917
2056
2227
2327
2399
2490
2556
2608
2627
2664
2639
2624
2598
2584
2567
2558
2550
2538
2527
2487
2439
2402
2339
2287
2230
2174
2116
2133
2086
2104
2104
2135
2155
2163
2170
2151
2116
2072
2019
1985
1994
1924
1911
1935
1932
1965
2000
2053
2091
2138
2144
2109
2054
2005
1941
1912
1887
1904
1911
1911
1943
1969
1995
2018
2037
2070
2079
2101
2090
2088
2093
2116
2135
2198
2221
2240
2244
2240
2190
2122
2071
2044
2024
1986
1969
1972
1997
2008
1989
2012
2024
2045
2053
2060
2013
2046
2036
2006
2023
2010
2041
2084
2087
2130
2158
2179
2178
2192
2192
2179
2174
2131
2103
2080
2048
2048
2050
2061
2088
2099
2107
2096
2077
2081
2048
2038
2020
2024
1962
1971
1932
1902
1905
1867
1863
1824
1787
1777
1765
1794
1794
1817
1812
1824
1821
1848
1861
1894
1934
1968
1989
1989
1994
1988
1966
1976
1957
1931
1900
1862
1864
1849
1830
1829
1811
1830
1828
1811
1838
1838
1860
1870
1859
1855
1894
1904
1932
1936
1956
1939
1931
1959
1951
1978
1932
1911
1929
1918
1932
1960
2025
2059
2112
2174
2199
2234
2242
2206
2176
2097
2033
1973
1955
1941
1979
1991
2007
2079
2115
2197
2227
2290
2336
2375
2388
2355
2362
2307
2269
2238
2191
2158
2136
2084
2057
2026
1976
1944
1891
1875
1870
1886
1926
1969
1987
2000
2031
2053
2079
2087
2091
2110
2107
2122
2106
2106
2083
2063
2043
2029
2027
2034
2048
2047
2097
2043
2034
2001
1972
1974
1992
2032
2065
2120
2168
2191
2244
2246
2215
2114
2043
1938
1814
1768
1725
1728
1727
1764
1838
1862
1887
1951
2015
2071
2113
2128
2133
2099
2099
2080
2057
2090
2097
2089
2060
2062
2064
2072
2049
2057
2045
2043
2054
2047
2060
2088
2132
2163
2183
2163
2142
2116
2060
2028
1961
1929
1909
1902
1904
1916
1920
1945
1936
1931
1909
1895
1912
1902
1888
1935
1946
1956
1985
2004
2031
2088
2108
2145
2169
2199
2187
2187
2144
2113
2114
2035
1997
1967
1943
1946
1989
2026
2063
2124
2129
2121
2100
2106
2092
2082
2063
2056
2058
2071
2060
2043
2033
2010
1985
1958
1930
1911
1888
1897
1894
1948
1974
2018
2061
2074
2085
2164
2087
2107
2115
2112
2106
2046
2003
1931
1882
1840
1839
1840
1853
1898
1942
1975
2023
2034
2049
2058
2068
2052
2081
2057
2077
2263
2127
2151
2184
2191
2204
2185
2143
2112
2079
2037
1997
1953
1947
1972
1975
1987
2007
2063
2100
2146
2168
2144
2060
1985
1913
1863
1861
1860
1881
1917
1918
1929
1937
1962
1985
1966
1940
1900
1927
1884
1909
1902
1903
1914
1947
1975
2008
2013
2035
2060
2073
2095
2110
2117
2122
2112
2107
2096
2075
2074
2086
2112
2121
2131
2105
2097
2092
2114
2120
2130
2148
2128
2110
2097
2125
2114
2090
2087
2057
2073
2016
2027
2017
1974
1960
1945
1967
1989
2024
2069
2063
2105
2077
2058
2048
2000
1955
1907
1876
1840
1827
1854
1912
1984
2043
2092
2133
2184
2159
2143
2117
2076
2041
1999
1987
1958
1969
1989
2008
2008
2002
2015
2015
1974
1951
1919
1908
1891
1895
1866
1881
1880
1894
1895
1906
1912
1920
1923
2078
1971
2033
2076
2124
2151
2161
2156
2136
2136
2120
2122
2162
2110
2106
2071
2017
1992
1999
2013
2023
2042
2041
2093
2116
2129
2122
2113
2081
2032
1999
1978
1923
1906
1874
1864
1867
1867
1889
1893
1913
1936
1977
2021
2066
2119
2121
2154
2129
2128
2096
2080
2071
2069
2086
2139
2168
2170
2158
2144
2130
2080
2024
1958
1891
1920
1859
1885
1926
1983
2061
2104
2152
2145
2138
2083
2043
2029
2072
2122
2197
2320
2444
2587
2714
2856
2962
3055
3092
3118
3121
3105
3070
3026
2938
2763
2679
2499
2263
2014
1702
1482
1124
879
641
478
336
264
231
255
287
375
490
612
761
919
1078
1243
1383
1543
1699
1823
1934
2035
2116
2175
2236
2281
2350
2404
2468
2517
2576
2583
2609
2662
2648
2652
2634
2613
2586
2566
2522
2504
2477
2444
2419
2347
2294
2195
2113
2036
1947
1896
1856
1833
1834
1845
1844
1873
1912
1962
2017
2093
2117
2119
2132
2145
2164
2168
2176
2174
2192
2182
2128
2094
2061
2021
2001
1943
1963
1959
1975
2000
2003
2043
2043
2041
2028
2025
2002
1977
1977
1945
1944
1962
1963
1994
2027
2058
2082
2131
2155
2185
2167
2168
2176
2133
2122
2079
2054
2055
2032
2051
2079
2096
2109
2101
2096
2052
2029
2017
2010
1993
2017
2031
2043
2057
2061
2048
2115
2029
2038
2035
2047
2071
2039
2036
2027
2052
2019
1997
1996
1992
2004
2019
2015
2055
2071
2113
2107
2063
2051
2033
2042
2048
2059
2061
2094
2145
2156
2208
2146
2120
2066
2026
1970
1887
1835
1815
1819
1818
1835
1850
1875
1861
1797
1767
1747
1706
1674
1648
1636
1646
1643
1624
1646
1666
1712
1742
1792
1792
1839
1846
1863
1861
1869
1919
1952
1992
2003
2034
2048
2046
2027
2026
2040
2064
2064
2068
2059
2040
2034
2048
2076
2116
2162
2182
2217
2246
2249
2251
2239
2187
2145
2102
2073
2069
2074
2078
2079
2111
2094
2108
2106
2091
2066
2054
1993
1941
1904
1888
1864
1851
1874
1911
1965
2025
2095
2147
2162
2156
2133
2110
2093
2095
2128
2146
2147
2171
2194
2192
2182
2167
2275
2139
2114
2080
2031
2005
1959
1964
1975
1975
1998
2046
2043
2041
2027
2032
2047
2087
2107
2188
2209
2232
2249
2224
2191
2138
2095
2105
1995
2002
1972
1905
1890
1874
1874
1882
1879
1895
1911
1922
1934
1917
1940
1917
1954
1942
1971
1977
1999
2019
2053
2081
2114
2119
2141
2153
2168
2171
2159
2208
2162
2158
2080
2119
2119
2096
2048
2048
2034
2037
2044
2091
2058
2069
2069
2088
2070
2032
1984
1951
1889
1905
1885
1899
1936
1953
1954
1958
1985
1965
1974
1981
1969
1941
1920
1934
1946
1978
2010
2020
2040
2068
2055
2085
2069
2073
2055
2091
2052
2056
2087
2083
2104
2132
2156
2132
2114
2084
2043
2020
1952
1983
1973
1988
2004
2042
2050
2061
2082
2084
2072
2050
2019
1979
1968
1972
1941
1943
1924
1930
1927
1915
1945
1958
1944
1947
1959
1969
1999
2015
2039
2022
2032
2019
2002
1991
2040
2048
2031
2071
2059
2080
2087
2085
2127
2102
2132
2151
2182
2211
2278
2349
2339
2375
2343
2318
2216
2111
2007
1932
1875
1859
1831
1870
1891
1896
1936
1940
1959
1993
1953
1936
1917
1922
1919
1899
1928
1960
1936
1933
1939
1979
1961
1961
1947
1924
1945
1902
1893
1883
1900
1901
1931
1986
2016
2043
2064
2077
2060
2061
2038
2050
2042
2030
2055
2067
2095
2095
2301
2149
2148
2125
2116
2107
2114
2138
2154
2220
2176
2195
2175
2188
2206
2163
2165
2169
2145
2129
2106
2080
2035
1973
1904
1851
1811
1836
1808
1832
1864
1896
1899
1899
1899
1874
1850
1805
1752
1720
1716
1754
1767
1823
1871
1922
1976
1977
2011
2046
2063
2081
2115
2103
2125
2158
2225
2266
2319
2333
2351
2333
2288
2199
2097
1994
1923
1848
1831
1813
1873
1873
1883
1914
1922
1938
1973
2015
2013
2051
2072
2115
2155
2182
2216
2219
2214
2207
2167
2135
2108
2027
1972
1883
1801
1741
1685
1615
1647
1696
1770
1866
1960
2026
2101
2144
2186
2198
2179
2204
2203
2230
2260
2236
2207
2179
2168
2168
2129
2111
2056
2011
1970
1911
1876
1879
1949
1995
2045
2086
2127
2153
2212
2295
2379
2498
2599
2687
2772
2847
2909
2964
3008
3053
3097
3087
3058
2959
2823
2656
2447
2227
2007
1782
1530
1297
1085
924
814
714
651
563
530
505
486
516
572
644
736
837
958
1111
1275
1428
1606
1756
1930
2064
2178
2273
2353
2391
2410
2437
2443
2454
2474
2482
2516
2534
2571
2603
2592
2560
2520
2514
2448
2374
2298
2243
2166
2117
2076
2032
2003
2048
2059
2079
2097
2114
2100
2099
2111
2061
2006
1977
1910
1866
1883
1872
1883
1902
1928
1993
2008
2014
2053
2064
2091
2120
2134
2200
2197
2212
2209
2193
2180
2171
2114
2070
2023
1995
1963
1943
1939
1947
1951
1982
1987
2024
2052
2057
2052
2071
2099
2105
2115
2150
2179
2192
2171
2176
2153
2158
2099
2031
1995
1962
1918
1912
1921
1895
1954
1973
2018
2047
2074
2107
2123
2130
2080
2066
2047
2029
2007
1976
1926
1919
1939
1990
2035
2123
2134
2180
2224
2231
2266
2272
2273
2287
2298
2299
2285
2273
2278
2234
2185
2152
2083
2046
1996
1923
1891
1842
1815
1789
1770
1775
1798
1837
1907
1911
1934
1928
1905
1871
1819
1791
1737
1695
1694
1688
1689
1691
1721
1741
1736
1769
1746
1758
1769
1793
1778
1793
1768
1767
1752
1764
1792
1826
1858
1881
1909
1942
1978
1999
2029
2071
2116
2160
2158
2208
2252
2290
2298
2332
2332
2296
2232
2176
2111
2056
2000
1986
1952
1959
1956
1979
1974
1991
2012
2033
2076
2064
2090
2048
2006
1982
1973
1991
1999
2026
2105
2128
2164
2230
2263
2282
2264
2255
2266
2175
2142
2110
2060
2046
2040
2033
2053
2028
1999
1967
1951
1947
1944
1950
2000
1995
2021
2067
2111
2169
2226
2259
2256
2238
2223
2166
2092
2047
1977
1921
1859
1880
1812
1826
1829
1886
1906
1948
2014
2082
2118
2166
2216
2268
2290
2314
2336
2289
2287
2255
2221
2167
2086
1986
1900
1795
1706
1653
1608
1618
1654
1668
1760
1839
1970
2020
2113
2114
2112
2114
2128
2119
2125
2104
2139
2173
2209
2241
2257
2257
2240
2208
2160
2130
2085
1983
1921
1871
1862
1853
1880
1945
1985
2024
2060
2078
2079
2095
2132
2134
2102
2072
2071
2071
2066
2079
2095
2115
2102
2134
2152
2170
2165
2128
2049
1970
1867
1794
1746
1726
1730
1782
1800
1785
1824
1840
1871
1911
1943
1980
1980
2024
2041
2061
2072
2066
2064
2045
2009
1979
1955
1907
1871
1872
1864
1894
1915
1945
1974
2058
2135
2222
2303
2349
2408
2399
2395
2366
2327
2284
2224
2187
2151
2130
2094
2067
2045
2033
2037
2002
1984
1974
1929
1915
1931
1890
1866
1874
1885
1914
1920
1952
1955
1945
1927
1918
1886
1852
1837
1807
1820
1822
1851
1901
1968
2023
2052
2097
2107
2120
2130
2139
2152
2127
2122
2090
2082
2075
2098
2083
2087
2066
2038
2003
2015
1982
1984
2000
1999
1975
1982
2011
2023
2034
2038
2055
2090
2128
2158
2170
2150
2152
2095
2043
1989
1968
1923
1898
1889
1932
1990
2017
2053
2067
2064
2047
2064
2021
1990
1978
2008
2042
2084
2083
2117
2107
2156
2127
2120
2093
2067
2020
2045
2039
2019
2073
2115
2160
2189
2183
2175
2119
2102
2074
2042
2034
2019
2012
2006
1984
1968
1929
1915
1883
1862
1873
1845
1829
1813
1805
1803
1800
1803
1815
1856
1878
1913
1950
1972
1994
2012
2032
2020
2022
2015
1977
2004
2014
2012
2023
2041
2062
2082
2094
2102
2108
2135
2124
2115
2129
2085
2068
2054
2082
2098
2120
2178
2223
2269
2291
2284
2247
2178
2071
1990
1888
1807
1742
1713
1708
1743
1777
1822
1859
1936
2012
2023
2070
2080
2091
2089
2100
2095
2096
2106
2089
2092
2105
2116
2132
2123
2115
2092
2070
1999
1984
1951
1945
1978
2017
2059
2090
2096
2116
2101
2102
2105
2112
2121
2115
2120
2142
2178
2218
2310
2404
2490
2601
2653
2718
2735
2812
2849
2880
2903
2899
2899
2884
2856
2822
2765
2667
2490
2279
2013
1725
1435
1143
934
707
543
454
375
324
327
369
436
553
646
766
901
1023
1177
1332
1504
1643
1786
1938
2052
2199
2247
2304
2347
2371
2386
2383
2375
2356
2345
2333
2341
2399
2374
2384
2399
2422
2387
2415
2399
2402
2359
2325
2338
2303
2266
2241
2243
2203
2184
2168
2128
2068
2015
2000
1924
1872
1815
1834
1847
1899
1948
2008
2082
2163
2218
2259
2291
2279
2243
2207
2165
2128
2080
2053
2047
2057
2059
2062
2084
2108
2118
2128
2143
2157
2113
2100
2093
2080
2085
2083
2073
2049
2014
1988
1972
1941
1930
1926
1933
1958
1959
2020
2041
2052
2070
2114
2187
2194
2223
2250
2237
2207
2160
2089
2028
1939
1885
1848
1852
1843
1856
1888
1910
1932
1963
1993
1962
2006
2022
2039
2049
2086
2113
2204
2183
2238
2275
2344
2314
2278
2278
2223
2188
2123
2068
2032
1990
1947
1890
1868
1833
1792
1782
1781
1794
1856
1890
1920
1960
2052
2088
2143
2211
2249
2278
2252
2195
2161
2053
1972
1860
1781
1698
1634
1579
1566
1576
1581
1601
1624
1659
1652
1689
1672
1674
1672
1695
1744
1779
1826
1862
1920
1956
1956
1997
2050
2084
2120
2160
2159
2123
2065
2043
2019
1984
1951
1926
1916
1914
1929
2000
2030
2091
2168
2228
2251
2259
2216
2232
2208
2200
2222
2258
2244
2250
2245
2229
2220
2143
2079
2013
1968
1927
1899
1893
1941
2010
2066
2093
2127
2140
2153
2149
2148
2127
2098
2076
2064
2068
2048
2089
2137
2107
2119
2121
2106
2070
2015
1972
1936
1899
1879
1902
1943
2013
2053
2118
2104
2129
2137
2137
2123
2101
2121
2104
2059
2052
2053
2074
2072
2073
2119
2135
2121
2079
2055
2020
1982
1960
1915
1882
1889
1888
1919
1928
1973
2014
2055
2103
2113
2115
2132
2112
2077
2056
2008
1989
1984
1991
2021
2044
2068
2080
2084
2065
2045
2014
1971
1931
1931
1952
2007
2056
2069
2068
2087
2092
2082
2082
2052
2048
2023
2014
2005
2009
2033
2055
2060
2071
2069
2104
2159
2187
2210
2196
2173
2077
2017
1921
1904
1848
1794
1770
1751
1732
1780
1820
1864
1905
1934
1987
2118
2054
2097
2107
2133
2118
2116
2107
2055
2016
2004
1959
1923
1887
1859
1832
1814
1823
1875
1915
2024
2067
2138
2159
2199
2223
2233
2243
2283
2263
2230
2183
2170
2157
2118
2110
2102
2103
2079
2069
2038
2000
1955
1911
1879
1860
1879
1842
1855
1890
1844
1852
1869
1871
1898
1919
1943
1997
2060
2068
2115
2145
2191
2210
2209
2228
2206
2195
2171
2132
2103
2050
2014
1988
1945
1928
1914
1915
1933
1966
1967
1974
1987
1978
1976
1970
1977
1998
2016
2049
2127
2179
2145
2125
2104
2090
2065
2052
2027
2059
2005
1984
1975
1970
1968
1971
2016
2043
2084
2108
2132
2137
2145
2160
2126
2140
2064
2031
1991
1959
1929
1918
1916
1895
1884
1871
1857
1842
1848
1853
1865
1907
1931
2009
2049
2103
2138
2167
2174
2146
2126
2184
2191
2195
2181
2154
2121
2076
2047
2035
2007
1990
2014
2028
2035
2060
2112
2065
2055
2037
2016
1998
1994
1947
1899
1861
1868
1856
1836
1865
1897
1921
1976
2011
2019
2064
2095
2147
2183
2213
2234
2230
2215
2198
2146
2100
2053
2023
2016
1988
2000
2014
2027
2034
2060
2078
2098
2130
2136
2152
2127
2122
2095
2064
2048
2035
1959
1941
1919
1896
1896
1890
1833
1792
1749
1748
1746
1761
1768
1780
1818
1860
1883
1931
1988
2044
2071
2098
2128
2183
2192
2150
2118
2130
2112
2081
2078
2074
2078
2100
2103
2161
2150
2174
2184
2191
2163
2145
2103
2082
2047
2029
2004
2003
2014
2029
2053
2071
2091
2075
2064
2033
2025
2010
2018
1997
1971
1955
1937
1915
1922
1891
1915
1928
1946
1958
1939
1951
1929
1944
1951
2008
2016
2015
2028
2014
2015
2013
2043
2073
2110
2152
2183
2220
2222
2207
2216
2162
2157
2135
2122
2087
2069
2038
2059
2102
2168
2288
2429
2602
2747
2873
3012
3127
3213
3276
3327
3318
3271
3208
3087
2939
2743
2519
2253
1959
1677
1390
1110
873
671
487
356
278
178
145
159
183
252
363
485
657
808
983
1161
1358
1518
1683
1818
1938
2043
2168
2280
2370
2471
2536
2588
2618
2596
2591
2560
2537
2507
2472
2411
2424
2400
2378
2360
2315
2302
2283
2271
2272
2288
2228
2198
2209
2125
2087
2058
2049
2048
2059
2079
2109
2153
2195
2152
2139
2097
2069
2045
2012
2008
2005
2023
2064
2048
2025
2023
2027
2031
2038
2031
2007
2004
2002
1975
1985
1982
2003
2019
2039
2049
2066
2080
2071
2082
2075
2080
2091
2125
2146
2150
2171
2186
2218
2205
2199
2176
2132
2095
2028
1965
1903
1878
1868
1893
1905
1930
1954
1998
2048
2083
2136
2169
2198
2208
2208
2193
2148
2148
2090
2091
2100
2119
2176
2183
2176
2173
2151
2122
2076
2031
1973
1908
1866
1875
1836
1825
1799
1826
1880
1919
1958
1981
1987
2003
2019
2056
2121
2144
2175
2220
2235
2246
2231
2234
2218
2168
2131
2071
2034
1928
1865
1776
1707
1652
1632
1583
1579
1598
1723
1633
1617
1646
1669
1712
1762
1809
1899
1990
2036
2074
2047
2011
1968
1914
1868
1810
1794
1758
1726
1721
1723
1731
1748
1770
1802
1837
1863
1906
1956
2040
2111
2181
2261
2329
2378
2405
2398
2424
2395
2355
2271
2212
2137
2058
2048
2023
2034
1978
1961
1940
1944
1952
1948
1971
2006
2064
2056
2064
2103
2135
2176
2224
2272
2323
2363
2382
2355
2305
2234
2168
2075
1993
1936
1885
1851
1851
1847
1859
1823
1830
1835
1851
1869
1912
1939
1970
2017
2066
2096
2155
2126
2135
2146
2152
