.comment from next-pnr
.device 5k
.io_tile 1 0
000000000000000000
000000000000000000
000000000000000000
000000000000000000
000000000000000000
000000000000000000
000000000000000000
000000000000000000
000000000000000000
000000000000000000
000000000000000000
000000000000000000
000000000000000000
000000000000000000
000000000000000000
000000000000000000

.io_tile 2 0
000000000000000000
000000000000000000
000000000000000000
000000000000000000
000000000000000000
000000000000000000
000000000000000000
000000000000000000
000000000000000000
000000000000000000
000000000000000000
000000000000000000
000000000000000000
000000000000000000
000000000000000000
000000000000000000

.io_tile 3 0
000000000000000000
000000000000000000
000000000000000000
000000000000000000
000000000000000000
000000000000000000
000000000000000000
000000000000000000
000000000000000000
000000000000000000
000000000000000000
000000000000000000
000000000000000000
000000000000000000
000000000000000000
000000000000000000

.io_tile 4 0
000000000000000000
000000000000000000
000000000000000000
000000000000000000
000000000000000000
000000000000000000
000000000000000000
000000000000000000
000000000000000000
000000000000000000
000000000000000000
000000000000000000
000000000000000000
000000000000000000
000000000000000000
000000000000000000

.io_tile 5 0
000000000000000010
000100000000000000
000000000000000000
000000000000000001
000010000000010010
000010110000010000
000000000000000100
000000000000000000
000000000000000000
000000000000000000
000000000000000000
000000000000000000
000000000000000000
000000000000000000
000000000000000000
000000000000000000

.io_tile 6 0
000000000000000010
000100000000000000
000000000000000000
000000000000000001
000000000000010010
000000000000110000
001000000000000100
000011010000000000
000000000000000000
000000000000000000
000000000000110010
000000000000010000
000000000000000100
000011010000000001
000000000000000010
000000000000000000

.io_tile 7 0
000000000000000000
000000000000000000
000000000000000000
000000000000000000
000000000000000000
000000000000000000
000000000000000000
000000000000000000
000000000000000000
000000000000000000
000000000000000000
000000000000000000
000000000000000000
000000000000000000
000000000000000000
000000000000000000

.io_tile 8 0
000000000000000000
000000000000000000
000000000000000000
000000000000000000
000000000000000000
000000000000000000
000000000000000000
000000000000000000
000000000000000000
000000000000000000
000000000000000000
000000000000000000
000000000000000000
000000000000000000
000000000000000000
000000000000000000

.io_tile 9 0
000000000000100000
000000000000000000
000000000000000000
000000000000000000
000001111000000000
000000001000000000
001000000001100000
000000000000000000
000000000000000000
000000000000000000
000000000000010010
000000000000010000
000000000000000100
000000000000000001
000000000000000010
000000000000000000

.io_tile 10 0
000000000000000000
000000000000000000
000000000000000000
000000000000000000
000000000000000000
000000000000000000
000000000000000000
000000000000000000
000000000000000000
000000000000000000
000000000000000000
000000000000000000
000000000000000000
000000000000000000
000000000000000000
000000000000000000

.io_tile 11 0
000000000000000000
000000000000000000
000000000000000000
000000000000000000
000000000000000000
000000000000000000
000000000000000000
000000000000000000
000000000000000000
000000000000000000
000000000000000000
000000000000000000
000000000000000000
000000000000000000
000000000000000000
000000000000000000

.io_tile 12 0
000001010000000000
000000000000000000
000000000000000000
000000000000000000
000000000000000100
000000000000000000
000000000000000000
000000000000000000
000000000000000000
000000000000000000
000000000000000000
000000000000000000
000000000000000000
000000000000000000
000000000000000000
000000000000000000

.io_tile 13 0
000000000000000000
000000000000000000
000000000000000000
000000000000000000
000000000000000100
000000000000001000
000000000000000000
000000000000000000
000000000000000000
000011110000000000
000000000000000000
000000000000000000
000000000000000000
000000000000000000
000000000000000000
000000000000000000

.io_tile 14 0
000000000000000000
000000000000000000
000000000000000000
000000000000000000
000000000000000000
000000000000000000
000000000000000000
000000000000000000
000000000000000000
000000000000000000
000000000000000000
000000000000000000
000000000000000000
000000000000000000
000000000000000000
000000000000000000

.io_tile 15 0
000000000000000000
000000000000000000
000000000000000000
000000000000000000
000000000000000000
000000000000000000
000000000000000000
000000000000000000
000000000000000000
000000000000000000
000000000000000000
000000000000000000
000000000000000000
000000000000000000
000000000000000000
000000000000000000

.io_tile 16 0
000000000000000000
000000000000000000
000000000000000000
000000000000000000
000000000000000000
000000000000000000
000000000000000000
000000000000000000
000000000000000000
000000000000000000
000000000000000000
000000000000000000
000000000000000000
000000000000000000
000000000000000000
000000000000000000

.io_tile 17 0
000000000000000000
000000000000000000
000000000000000000
000000000000000000
000000000000000000
000000000000000000
000000000000000000
000000000000000000
000000000000000000
000000000000000000
000000000000000000
000000000000000000
000000000000000000
000000000000000000
000000000000000000
000000000000000000

.io_tile 18 0
000000000000000000
000000000000000000
000000000000000000
000000000000000000
000000000000000000
000000000000000000
000000000000000000
000000000000000000
000000000000000000
000000000000000000
000000000000000000
000000000000000000
000000000000000000
000000000000000000
000000000000000000
000000000000000000

.io_tile 19 0
000000000000000000
000000000000000000
000000000000000000
000000000000000000
000000000000001100
000000000000000100
000000011000000000
000000000000000000
000000000000000000
000000000000000000
000000000000000000
000000000000000000
000000000000000000
000000000000000000
000000000000000000
000000000000000000

.io_tile 20 0
000000000000000000
000000000000000000
000000000000000000
000000000000000000
000000000000000000
000000000000000000
000000000000000000
000000000000000000
000000000000000000
000000000000000000
000000000000000000
000000000000000000
000000000000000000
000000000000011000
000000000000000000
000000000000000000

.io_tile 21 0
000000000000000000
000000000000000000
000000000000000000
000000000000000000
000000000000000000
000000000000000000
000000000000000000
000000000000000000
000000000000000000
000000000000000000
000000000000000000
000000000000000000
000000000000000000
000000000000000000
000000000000000000
000000000000000000

.io_tile 22 0
000000000000000000
000000000000000000
000000000000000000
000000000000000000
000000000000000000
000000000000000000
000000000000000000
000000000000000000
000000000000000000
000000000000000000
000000000000000000
000000000000000000
000000000000000000
000000000000000000
000000000000000000
000000000000000000

.io_tile 23 0
100000000000000010
000100000000000000
000010000000000000
000000110000000001
000000000010110001
000000000011110000
001101011000000100
000000000000000000
000000000000000000
000000000000000000
000000000011010110
000000000011111000
000000000000000100
000000000000000001
000001011000000001
000000000000000000

.io_tile 24 0
000000000000000010
000100000000000000
000000000000000000
000011010000000001
000000111010110001
000000001001010000
001100000000000100
000000000000000000
000000000000000000
100100000000000000
000000000011010110
000000000001011000
000000111000000100
000000001000000001
000000000000000001
000000000000000000

.ipcon_tile 0 1
000000000000000000000000000000000000110000110000001000
000000000000000000000000000000000000110000110000000000
000000000000000000000000000000000000110000110000001000
000000000000000000000000000000000000110000110000000000
000000000000000000000000000000000000110000110000001000
000000000000000000000000000000000000110000110000000000
000000000000000000000000000000000000110000110000001000
000000000000000000000000000000000000110000110000000000
000000000000000000000000000000000000110000110000001000
000000000000000000000000000000000000110000110000000000
000000000000000000000000000000000000110000110000001000
000000000000000000000000000000000000110000110000000000
000000000000000000000000000000000000110000110000001000
000000000000000000000000000000000000110000110000000000
000000000000000000000000000000000000110000110000001000
000000000000000000000000000000000000110000110000000000

.logic_tile 1 1
000000000000000000000000000000000000000000000000000000
000000000000000000000000000000000000000000000000000000
000000000000000000000000000000000000000000000000000000
000000000000000000000000000000000000000000000000000000
000000000000000000000000000000000000000000000000000000
000000000000000000000000000000000000000000000000000000
000000000000000000000000000000000000000000000000000000
000000000000000000000000000000000000000000000000000000
000000000000000000000000000000000000000000000000000000
000000000000000000000000000000000000000000000000000000
000000000000000000000000000000000000000000000000000000
000000000000000000000000000000000000000000000000000000
000000000000000000000000000000000000000000000000000000
000000000000000000000000000000000000000000000000000000
000000000000000000000000000000000000000000000000000000
000000000000000000000000000000000000000000000000000000

.logic_tile 2 1
000000000000000000000000000000000000000000000000000000
000000000000000000000000000000000000000000000000000000
000000000000000000000000000000000000000000000000000000
000000000000000000000000000000000000000000000000000000
000000000000000000000000000000000000000000000000000000
000000000000000000000000000000000000000000000000000000
000000000000000000000000000000000000000000000000000000
000000000000000000000000000000000000000000000000000000
000000000000000000000000000000000000000000000000000000
000000000000000000000000000000000000000000000000000000
000000000000000000000000000000000000000000000000000000
000000000000000000000000000000000000000000000000000000
000000000000000000000000000000000000000000000000000000
000000000000000000000000000000000000000000000000000000
000000000000000000000000000000000000000000000000000000
000000000000000000000000000000000000000000000000000000

.logic_tile 3 1
000000000000000000000000000000000000000000000000000000
000000000000000000000000000000000000000000000000000000
000000000000000000000000000000000000000000000000000000
000000000000000000000000000000000000000000000000000000
000000000000000000000000000000000000000000000000000000
000000000000000000000000000000000000000000000000000000
000000000000000000000000000000000000000000000000000000
000000000000000000000000000000000000000000000000000000
000000000000000000000000000000000000000000000000000000
000000000000000000000000000000000000000000000000000000
000000000000000000000000000000000000000000000000000000
000000000000000000000000000000000000000000000000000000
000000000000000000000000000000000000000000000000000000
000000000000000000000000000000000000000000000000000000
000000000000000000000000000000000000000000000000000000
000000000000000000000000000000000000000000000000000000

.logic_tile 4 1
000000000000000000000000000000000000000000000000000000
000000000000000000000000000000000000000000000000000000
000000000000000000000000000000000000000000000000000000
000000000000000000000000000000000000000000000000000000
000000000000000000000000000000000000000000000000000000
000000000000000000000000000000000000000000000000000000
000000000000000000000000000000000000000000000000000000
000000000000000000000000000000000000000000000000000000
000000000000000000000000000000000000000000000000000000
000000000000000000000000000000000000000000000000000000
000000000000000000000000000000000000000000000000000000
000000000000000000000000000000000000000000000000000000
000000000000000000000000000000000000000000000000000000
000000000000000000000000000000000000000000000000000000
000000000000000000000000000000000000000000000000000000
000000000000000000000000000000000000000000000000000000

.logic_tile 5 1
000000000000000000000000000000000000000000000000000000
000000000000000000000000000000000000000000000000000000
000000000000000000000000000000000000000000000000000000
000000000000000000000000000000000000000000000000000000
000000000000000000000000000000000000000000000000000000
000000000000000000000000000000000000000000000000000000
000000000000000000000000000000000000000000000000000000
000000000000000000000000000000000000000000000000000000
000000000000000000000000000000000000000000000000000000
000000000000000000000000000000000000000000000000000000
000000000000000000000000000000000000000000000000000000
000000000000000000000000000000000000000000000000000000
000000000000000000000000000000000000000000000000000000
000000000000000000000000000000000000000000000000000000
000000000000000000000000000000000000000000000000000000
000000000000000000000000000000000000000000000000000000

.ramb_tile 6 1
000000000000000000000000000000000000000000
000000000000000000000000000000000000000000
000000000000000000000000000000000000000000
000000000000000000000000000000000000000000
000000000000000000000000000000000000000000
000000000000000000000000000000000000000000
000000000000000000000000000000000000000000
000000000000000000000000000000000000000000
000000000000000000000000000000000000000000
000000000000000000000000000000000000000000
000000000000000000000000000000000000000000
000000000000000000000000000000000000000000
000000000000000000000000000000000000000000
000000000000000000000000000000000000000000
000000000000000000000000000000000000000000
000000000000000000000000000000000000000000

.logic_tile 7 1
000000000100000101000000000101000001000000001000000000
000000000000000000100000000000101000000000000000001000
000000000000000000000000000111000000000000001000000000
000000000000001101000000000000001000000000000000000000
000000000000000111000000000101100000000000001000000000
000000000000000000100010110000101101000000000000000000
000000000000000000000000000111000000000000001000000000
000000000000000000000010110000101100000000000000000000
000000000000000101000000010111000001000000001000000000
000000000000000000000010100000001100000000000000000000
000000000000001101000110110111100001000000001000000000
000000000000000101000010100000001100000000000000000000
000000000000000101100110100111000001000000001000000000
000000000000000101000010100000101101000000000000000000
000000000000000101100000000101000001000000001000000000
000000000000000000000000000000001101000000000000000000

.logic_tile 8 1
000000000000000000000000000111100000000000001000000000
000000000000000000000000000000000000000000000000001000
001000000000000000000110010000011100001100111100000000
000000000000000000000010000000001100110011000000000000
000000000000000000000000000000001000001100111100000000
000000000000000000000000000000001101110011000000000000
000000000000001000000000000000001000001100111100000000
000000000000000001000000000000001101110011000000000000
000000000000000001100110010101101000001100111100000000
000000000000000000000010000000000000110011000000000000
000000000000000001100000000000001001001100111100000000
000000000000001101000000000000001100110011000000000000
000000000000000000000000000000001001001100111100000000
000000000000000000000000000000001001110011000000000000
000000000000000000000000001000001000001100110100000000
000000000000001101000000001001000000110011000000000000

.logic_tile 9 1
000000000000000000000000000000000000000000000000000000
000000000000000000000000000000000000000000000000000000
011000000000000000000000000000000000000000000000000000
000000000000000000000010110000000000000000000000000000
110000000000000000000000000000000000000000000000000000
000000000000000000000000000000000000000000000000000000
000000000000000000000000000000000000000000000000000000
000000000000000000000000000000000000000000000000000000
000000000000000000000000000000000000000000000000000000
000000000000000000000000000000000000000000000000000000
000000000000000000000000000000000000000000000000000000
000000000000000000000000000000000000000000000000000000
000000000000000000000000000000000001000000100100000000
000000000000000000000000000000001001000000000000000001
000000000000000000000000000000000000000000000000000000
000000000000000000000000000000000000000000000000000000

.logic_tile 10 1
000000000000000000000000000000000000000000000000000000
000000000000000000000000000000000000000000000000000000
011000000000001000000000000000000000000000000000000000
000000000000000111000000000000000000000000000000000000
110000000000000000000000000000000000000000000000000000
000000000000000000000000000000000000000000000000000000
000000000000000000000000000000000000000000100100000000
000000000000000000000000000000001101000000000000000001
000000000000000000000010100000001110000100000100000000
000000000000000000000100000000010000000000000000000000
000000000000000000000000000001100000000000000100000000
000000000000000000000000000000000000000001000000000100
000000000000000000000000000000000000000000000000000000
000000000000000000000010110000000000000000000000000000
000000000000000000000000000000000000000000000000000000
000000000000000000000000000000000000000000000000000000

.logic_tile 11 1
000000000000000000000000000000011110000100000100000000
000000000000000000000000000000010000000000000000000000
011000000000000000000000000000000000000000000000000000
000000000000000000000000000000000000000000000000000000
110000000000000000000000000000000000000000000000000000
000000000000000000000000000000000000000000000000000000
000000000000001000000000001000000000000000000100000000
000000000000000001000000001011000000000010000000000000
000000000000001000000110100000000000000000000100000000
000000000000000101000000000011000000000010000000000000
000000000000000000000110101111011110000010000000000000
000000000000000000000000000101111110000000000000000000
000000000000001000000110000000001100000100000100000000
000000000000000001000000000000010000000000000000000000
000000000000000101100110010000011110000100000100000100
000000000000000000000010100000000000000000000000000000

.logic_tile 12 1
000000000000000000000000000000000001000000100100000000
000000000000000000000000000000001001000000000000000000
011000000000000000000000010000000000000000000000000000
000000000000000000000010000000000000000000000000000000
110000000000001000000110000000000000000000000100000000
100000000000000001000000000111000000000010000001000000
000000000000000000000000000000000000000000000100000000
000000000000000000000000001111000000000010000000000000
000000000000000000000000000000000000000000000000000000
000000000000000000000000000000000000000000000000000000
000000000000000000000000000000000000000000100100000000
000000000000000000000000000000001010000000000000000000
000000000000000001000000010000000001000000100100000000
000000000000000000000010000000001111000000000000000000
000000000000000000000110000101000000000000000100000000
000000000000000000000000000000100000000001000000000000

.logic_tile 13 1
000000000000000000000111100000000000000000000000000000
000000000000000000000000000000000000000000000000000000
000000000000000000000000000000000000001111000000000000
000000000000000000000000000000001001001111000000000000
000000000000000000000000000000000000000000000000000000
000000000000000000000000000000000000000000000000000000
000000000000000000000000000000000000000000000000000000
000000000000000000000000000000000000000000000000000000
000000000000000000000000000000000000000000000000000000
000000000000000000000000000000000000000000000000000000
000000000000000000000000000000000000000000000000000000
000000000000000000000000000000000000000000000000000000
000000000000000000000000000000000000000000000000000000
000000000000000000000000000000000000000000000000000000
000000000000000000000000000000000000000000000000000000
000000000000000000000000000000000000000000000000000000

.logic_tile 14 1
000000000000000000000000000000000000000000000000000000
000000000000000000000000000000000000000000000000000000
000000000000000000000000000000000000000000000000000000
000000000000000000000000000000000000000000000000000000
000000000000000000000000000000000000000000000000000000
000000000000000000000000000000000000000000000000000000
000000000000000000000000000000000000000000000000000000
000000000000000000000000000000000000000000000000000000
000000000000000000000000000000000000000000000000000000
000000000000000000000000000000000000000000000000000000
000000000000000000000000000000000000000000000000000000
000000000000000000000000000000000000000000000000000000
000000000000000000000000000000000000000000000000000000
000000000000000000000000000000000000000000000000000000
000000000000000000000000000000000000000000000000000000
000000000000000000000000000000000000000000000000000000

.logic_tile 15 1
000000000000000000000000000000000000000000000000000000
000000000000000000000000000000000000000000000000000000
000000000000000000000000000000000000000000000000000000
000000000000000000000000000000000000000000000000000000
000000000000000000000000000000000000000000000000000000
000000000000000000000000000000000000000000000000000000
000000000000000000000000000000000000000000000000000000
000000000000000000000000000000000000000000000000000000
000000000000000000000000000000000000000000000000000000
000000000000000000000000000000000000000000000000000000
000000000000000000000000000000000000000000000000000000
000000000000000000000000000000000000000000000000000000
000000000000000000000000000000000000000000000000000000
000000000000000000000000000000000000000000000000000000
000000000000000000000000000000000000000000000000000000
000000000000000000000000000000000000000000000000000000

.logic_tile 16 1
000000000000000000000000000000000000000000000000000000
000000000000000000000000000000000000000000000000000000
000000000000000000000000000000000000000000000000000000
000000000000000000000000000000000000000000000000000000
000000000000000000000000000000000000000000000000000000
000000000000000000000000000000000000000000000000000000
000000000000000000000000000000000000000000000000000000
000000000000000000000000000000000000000000000000000000
000000000000000000000000000000000000000000000000000000
000000000000000000000000000000000000000000000000000000
000000000000000000000000000000000000000000000000000000
000000000000000000000000000000000000000000000000000000
000000000000000000000000000000000000000000000000000000
000000000000000000000000000000000000000000000000000000
000000000000000000000000000000000000000000000000000000
000000000000000000000000000000000000000000000000000000

.logic_tile 17 1
000000000000000000000000000000000000000000000000000000
000000000000000000000000000000000000000000000000000000
000000000000000000000000000000000000000000000000000000
000000000000000000000000000000000000000000000000000000
000000000000000000000000000000000000000000000000000000
000000000000000000000000000000000000000000000000000000
000000000000000000000000000000000000000000000000000000
000000000000000000000000000000000000000000000000000000
000000000000000000000000000000000000000000000000000000
000000000000000000000000000000000000000000000000000000
000000000000000000000000000000000000000000000000000000
000000000000000000000000000000000000000000000000000000
000000000000000000000000000000000000000000000000000000
000000000000000000000000000000000000000000000000000000
000000000000000000000000000000000000000000000000000000
000000000001000000000000000000000000000000000000000000

.logic_tile 18 1
000000000000000111000000000000011000000100000100000000
000000000000000000100000000000000000000000000000000000
011000000000000111100000000000000000000000000000000000
000000000000000000000000000000000000000000000000000000
000000000000000000000000010000001110000100000100000000
000000000000000000000010000000000000000000000000000000
000000000000000000000000000000000000000000000110000000
000000000000000000000000000001000000000010000000000000
000000000000000000000000000000000000000000000000000000
000000000000000000000000000000000000000000000000000000
000000000000000000000000000000000000000000000000000000
000000000000000000000000000000000000000000000000000000
000000000000001000000110000000000000000000000000000000
000000000000000001000000000000000000000000000000000000
000000000000000000000000000000001110001000000000000000
000000000000000000000000000111011011000100000000000000

.ramb_tile 19 1
000000000000000000000000000000000000000000
000000000000000000000000000000000000000000
000000000000000000000000000000000000000000
000000000000000000000000000000000000000000
000000000000000000000000000000000000000000
000000000000000000000000000000000000000000
000000000000000000000000000000000000000000
000000000000000000000000000000000000000000
000000000000100000000000000000000000000000
000000000000000000000000000000000000000000
000000000000000000000000000000000000000000
000000000000000000000000000000000000000000
000000000000000000000000000000000000000000
000000000000000000000000000000000000000000
000000000000000000000000000000000000000000
000000000000000000000000000000000000000000

.logic_tile 20 1
000000000000000000000000000000000000000000000000000000
000000000000000000000000000000000000000000000000000000
000000000000000000000000000000000000000000000000000000
000000000000000000000000000000000000000000000000000000
000000000000000000000000000000000000000000000000000000
000000000000000000000000000000000000000000000000000000
000000000000000000000000000000000000000000000000000000
000000000000000000000000000000000000000000000000000000
000000000000000000000000000000000000000000000000000000
000000000000000000000000000000000000000000000000000000
000000000000000000000000000000000000000000000000000000
000000000000000000000000000000000000000000000000000000
000000000000000000000000000000000000000000000000000000
000000000000000000000000000000000000000000000000000000
000000000000000000000000000000000000000000000000000000
000000000000000000000000000000000000000000000000000000

.logic_tile 21 1
000000000000000000000000000000000000000000000000000000
000000000000000000000000000000000000000000000000000000
011000000000000000000000000000000000000000000000000000
000000100000000000000000000000000000000000000000000000
000000000000000000000000000000011010000100000100000000
000000000000000000000000000000000000000000000001000000
000000000000001000000000000000000000000000000000000000
000000000000001111000000000000000000000000000000000000
000000000000000000000000000000000000000000000000000000
000000000000000000000000000000000000000000000000000000
000000000000000000000000000000000000000000000000000000
000000000000000000000000000000000000000000000000000000
000000000000000000000000000000000000000000000000000000
000000000000000000000000000000000000000000000000000000
000000000000000000000000000000000000000000000000000000
000000000000000000000000000000000000000000000000000000

.logic_tile 22 1
000000000000000000000000000000000000000000000000000000
000000000000000000000000000000000000000000000000000000
000000000000000000000000000000000000000000000000000000
000000000000000000000000000000000000000000000000000000
000000000000000000000000000000000000000000000000000000
000000000000000000000000000000000000000000000000000000
000000000000000000000000000000000000000000000000000000
000000000000000000000000000000000000000000000000000000
000000000000000000000000000000000000000000000000000000
000000000000000000000000000000000000000000000000000000
000000000000000000000000000000000000000000000000000000
000000000000000000000000000000000000000000000000000000
000000000000000000000000000000000000000000000000000000
000000000000000000000000000000000000000000000000000000
000000000000000000000000000000000000000000000000000000
000000000000000000000000000000000000000000000000000000

.logic_tile 23 1
000000000001011000000000000000000000000000000000000000
000000000000101001000000000000000000000000000000000000
011000000000000000000000000000000000000000000000000000
000000000000000000000000000000000000000000000000000000
000000000000000000000000000000000000000000000000000000
000000000000000000000000000000000000000000000000000000
000000000000000000000000000000000000000000000000000000
000000000000000000000000000000000000000000000000000000
000000000000000000000000000000000000000000100110000000
000000000000000000000000000000001000000000000000000000
000000000000000000000000000000000000000000000000000000
000000000000000000000000000000000000000000000000000000
000000000000000000000000000000000000000000000000000000
000000000000000000000000000000000000000000000000000000
000000000000000000000000000000000000000000000000000000
000000000000000000000000000000000000000000000000000000

.logic_tile 24 1
000000000000000000000000000000000000000000000000000000
000000000000000000000000000000000000000000000000000000
000000000000000000000000000000000000000000000000000000
000000000000000000000000000000000000000000000000000000
000000000000000000000000000000000000000000000000000000
000000000000000000000000000000000000000000000000000000
000000000000000000000000000000000000000000000000000000
000000000000000000000000000000000000000000000000000000
000000000000000000000000000000000000000000000000000000
000000000000000000000000000000000000000000000000000000
000000000000000000000000000000000000000000000000000000
000000000000000000000000000000000000000000000000000000
000000000000000000000000000000000000000000000000000000
000000000000000000000000000000000000000000000000000000
000000000000000000000000000000000000000000000000000000
000010000000000000000000000000000000000000000000000000

.ipcon_tile 25 1
000000000000000000000000000000000000110000110000001000
000000000000000000000000000000000000110000110000000000
000000000000000000000000000000000000110000110000001000
000000000000000000000000000000000000110000110000000000
000000000000000000000000000000000000110000110000001000
000000000000000000000000000000000000110000110000000000
000000000000000000000000000000000000110000110000001000
000000000000000000000000000000000000110000110000000000
000000000000000000000000000000000000110000110000001000
000000000000000000000000000000000000110000110000000000
000000000000000000000000000000000000110000110000001000
000000000000000000000000000000000000110000110000000000
000000000000000000000000000000000000110000110000001000
000000000000000000000000000000000000110000110000000000
000000000000000000000000000000000000110000110000001000
000000000000000000000000000000000000110000110000000000

.ipcon_tile 0 2
000000000000000000000000000000000000110000110000001000
000000000000000000000000000000000000110000110000000000
000000000000000000000000000000000000110000110000001000
000000000000000000000000000000000000110000110000000000
000000000000000000000000000000000000110000110000001000
000000000000000000000000000000000000110000110000000000
000000000000000000000000000000000000110000110000001000
000000000000000000000000000000000000110000110000000000
000000000000000000000000000000000000110000110000001000
000000000000000000000000000000000000110000110000000000
000000000000000000000000000000000000110000110000001000
000000000000000000000000000000000000110000110000000000
000000000000000000000000000000000000110000110000001000
000000000000000000000000000000000000110000110000000000
000000000000000000000000000000000000110000110000001000
000000000000000000000000000000000000110000110000000000

.logic_tile 1 2
000000000000000000000000000000000000000000000000000000
000000000000000000000000000000000000000000000000000000
000000000000000000000000000000000000000000000000000000
000000000000000000000000000000000000000000000000000000
000000000000000000000000000000000000000000000000000000
000000000000000000000000000000000000000000000000000000
000000000000000000000000000000000000000000000000000000
000000000000000000000000000000000000000000000000000000
000000000000000000000000000000000000000000000000000000
000000000000000000000000000000000000000000000000000000
000000000000000000000000000000000000000000000000000000
000000000000000000000000000000000000000000000000000000
000000000000000000000000000000000000000000000000000000
000000000000000000000000000000000000000000000000000000
000000000000000000000000000000000000000000000000000000
000000000000000000000000000000000000000000000000000000

.logic_tile 2 2
000000000000000000000000000000000000000000000000000000
000000000000000000000000000000000000000000000000000000
000000000000000000000000000000000000000000000000000000
000000000000000000000000000000000000000000000000000000
000000000000000000000000000000000000000000000000000000
000000000000000000000000000000000000000000000000000000
000000000000000000000000000000000000000000000000000000
000000000000000000000000000000000000000000000000000000
000000000000000000000000000000000000000000000000000000
000000000000000000000000000000000000000000000000000000
000000000000000000000000000000000000000000000000000000
000000000000000000000000000000000000000000000000000000
000000000000000000000000000000000000000000000000000000
000000000000000000000000000000000000000000000000000000
000000000000000000000000000000000000000000000000000000
000000000000000000000000000000000000000000000000000000

.logic_tile 3 2
000000000000000000000000000000000000000000000000000000
000000000000000000000000000000000000000000000000000000
000000000000000000000000000000000000000000000000000000
000000000000000000000000000000000000000000000000000000
000000000000000000000000000000000000000000000000000000
000000000000000000000000000000000000000000000000000000
000000000000000000000000000000000000000000000000000000
000000000000000000000000000000000000000000000000000000
000000000000000000000000000000000000000000000000000000
000000000000000000000000000000000000000000000000000000
000000000000000000000000000000000000000000000000000000
000000000000000000000000000000000000000000000000000000
000000000000000000000000000000000000000000000000000000
000000000000000000000000000000000000000000000000000000
000000000000000000000000000000000000000000000000000000
000000000000000000000000000000000000000000000000000000

.logic_tile 4 2
000000000000000000000000000000000000000000000000000000
000000000000000000000000000000000000000000000000000000
000000000000000000000000000000000000000000000000000000
000000000000000000000000000000000000000000000000000000
000000000000000000000000000000000000000000000000000000
000000000000000000000000000000000000000000000000000000
000000000000000000000000000000000000000000000000000000
000000000000000000000000000000000000000000000000000000
000000000000000000000000000000000000000000000000000000
000000000000000000000000000000000000000000000000000000
000000000000000000000000000000000000000000000000000000
000000000000000000000000000000000000000000000000000000
000000000000000000000000000000000000000000000000000000
000000000000000000000000000000000000000000000000000000
000000000000000000000000000000000000000000000000000000
000000000000000000000000000000000000000000000000000000

.logic_tile 5 2
000000000000000000000000000000000000000000000000000000
000000000010000000000000000000000000000000000000000000
000000000000000000000000000000000000000000000000000000
000000000000000000000000000000000000000000000000000000
000000000000000000000000000000000000000000000000000000
000000000000000000000000000000000000000000000000000000
000000000000000000000000000000000000000000000000000000
000000000000000000000000000000000000000000000000000000
000000000000000000000000000000000000000000000000000000
000000000000000000000000000000000000000000000000000000
000000000000000000000000000000000000000000000000000000
000000000000000000000000000000000000000000000000000000
000000000000000000000000000000000000000000000000000000
000000000000000000000000000000000000000000000000000000
000000000000000000000000000000000000000000000000000000
000000000000000000000000000000000000000000000000000000

.ramt_tile 6 2
000000000000000000000000000000000000000000
000000000000000000000000000000000000000000
000000000000000000000000000000000000000000
000000000000000000000000000000000000000000
000000000000000000000000000000000000000000
000000000000000000000000000000000000000000
000000000000000000000000000000000000000000
000000000000000000000000000000000000000000
000000000000000000000000000000000000000000
000000000000000000000000000000000000000000
000000000000000000000000000000000000000000
000000000000000000000000000000000000000000
000000000000000000000000000000000000000000
000000000000000000000000000000000000000000
000000000000000000000000000000000000000000
000000000000000000000000000000000000000000

.logic_tile 7 2
000000000000000000000000000000001000000011110100000000
000000000000000000000000000000000000000011110001010000
001000000000000000000000001000000000010110100000000000
000000000000000000000000001111000000101001010000000000
000000000000000000000000001000000000010110100000000000
000000000000000000000000000011000000101001010000000000
000000000000001000000000000000000000000000000000000000
000000000000000001000000000000000000000000000000000000
000000000000000000000000000000011010000011110100000000
000000000000000000000000000000000000000011110000000000
000000000000001000000110100000000000000000000000000000
000000000000000101000000000000000000000000000000000000
000000000000000000000000000000011100000011110000000000
000000000000000000000000000000010000000011110000000000
000000000000000000000000010000000000000000000000000000
000000000000000000000010100000000000000000000000000000

.logic_tile 8 2
000000000000000000000000000111000000010110100000000000
000000000000000000000000000000100000010110100000000000
011000000000000000000000001000000000010110100000000000
000000000000000000000000001111000000101001010000000000
010000000000000000000010000000000001001111000000000000
110000000000000000000100000000001100001111000000000000
000000000000000000000000000000000000000000000000000000
000000000000000000000000000000000000000000000000000000
000000000000000000000010000011000000000000000100000000
000000000000000000000000000000100000000001000000000000
000000000000001000000010010011100000010110100000000000
000000000000001011000011010000100000010110100000000000
000000000000000000000000010011100000000000000100000000
000000000000000000000011010000100000000001000000000000
000000000000000000000000010000000001000000100100000000
000000000000000101000011000000001110000000000000000000

.logic_tile 9 2
000000100000000000000110000000001100000100000100000000
000001000000000000000000000000000000000000000000000000
011000000000010000000000000000000001000000100100000000
000000000000100000000000000000001101000000000010000000
110000000000000000000000000000011100000100000100000000
100000000000000001000000000000000000000000000010000000
000000000000000000000000000000011100000100000100000000
000000000000000000000000000000010000000000000000000000
000000000000001001100000000001000000000000000100000000
000000000000000001000000000000100000000001000000000000
000000000000000001100110011000000000000000000100000000
000000000000000000000010000111000000000010000000000000
000000000001000000000000000000000000000000000100000000
000000000000100000000000000011000000000010000000000000
000000000000011000000000000000000000000000000100000000
000000000000100001000000000101000000000010000000000000

.logic_tile 10 2
000000100000000000000000000000011011000011000000000000
000000000000010000000011100000001001000011000010000000
011010100000000101000000001000011000101000000000000001
000001000000000000000010110101010000010100000000000100
010000000000000000000000001101100000000000000000000000
010000000000000000000011111001000000010110100000000101
000000000000000001100000011101100001000000000000000000
000000000000000101100010011101001000100000010010000001
000000000000000000000000000000001010000100000100000000
000000000000000000000000000000010000000000000000000000
000010100000000000000000010001100001010000100000000000
000001001100000000000010000000101010010000100000000000
000000000000001000000000000101111001000000100000000100
000000000000000001000000000000101010000000100000000000
000000000000000000000000011011100000100000010010000000
000000000000000000000011111111101110000000000000000000

.logic_tile 11 2
000000000000000000000000000000001110000011110000000000
000000000000000000000000000000010000000011110000000000
011000000000001000000000000000000000000000000000000000
000000000000000101000010100000000000000000000000000000
110000000000000000000010100000000000000000100100000000
110000000000000101000000000000001101000000000000000000
000010000000000011100000000001100000010110100000000000
000001000000000101100000000000000000010110100000000000
000000000000000000000000001101101010100000000000000000
000000000000000000000010111001001011000000000000000000
000000000000000000000000000000000001001111000000000000
000000000000000000000000000000001111001111000000000000
000000000000000000000010011000000000000000000100000000
000000000000000000000010000101000000000010000000000000
000010100000000000000000010000000000000000000000000000
000001000001010000000010000000000000000000000000000000

.logic_tile 12 2
000000000000000000000000000000000000000000000000000000
000000000000000000000000000000000000000000000000000000
011000000000000000000000000000000000000000000000000000
000000000000000000000000000000000000000000000000000000
000000000000000001100000000000000000000000000000000000
000000000000000000100000000000000000000000000000000000
000000000000000000000000000000000000000000000000000000
000000000000000000000000000000000000000000000000000000
000000000000000000000000000000000000000000000000000000
000000000000000000000000000000000000000000000000000000
000000000000000000000000000000000000000000000000000000
000001000000000000000000000000000000000000000000000000
000000000000000000000000000000000000000000000000000000
000000000000000000000000000000000000000000000000000000
000000000000000000000000000101000000000000000100000001
000000000000000000000000000000000000000001000011100010

.logic_tile 13 2
000000000000000000000000000000000000000000000000000000
000000000000000000000000000000000000000000000000000000
011000000000000000000000000000000000000000000000000000
000000000000000000000000000000000000000000000000000000
110000000000000000000000000000000000000000000000000000
100000001100000000000000000000000000000000000000000000
000000000000000000000000000000000000000000000000000000
000000000000000000000000000000000000000000000000000000
000000000000000000000000000000000000000000000000000000
000000000000000000000000000000000000000000000000000000
000000000000000000000000000000000001000000100100000000
000000000000000000000000000000001110000000000001000000
000000000000000000000000000000000000000000000000000000
000000000000000000000000000000000000000000000000000000
000000000000001000000000000000000000000000000000000000
000000000000000101000000000000000000000000000000000000

.logic_tile 14 2
000000000000000000000000000000000000000000000000000000
000000000000000000000000000000000000000000000000000000
011000000000000000000000000000000000000000000000000000
000000000000000000000000000000000000000000000000000000
110000000000000111100000000000000000000000000000000000
100000000000000000000000000000000000000000000000000000
000000000000000000000000000000000000000000000000000000
000000000000000000000000000000000000000000000000000000
000000000000000000000000000000000000000000000100000100
000000000000000000000000000101000000000010000000000000
000000000000000000000000000000000000000000000000000000
000000000000000000000000000000000000000000000000000000
000000000000000000000000000000000000000000000000000000
000000000000000000000000000000000000000000000000000000
000000000000000000000000000000000000000000000000000000
000000000000000000000000000000000000000000000000000000

.logic_tile 15 2
000000000000000000000000000000000000000000000000000000
000000000000000000000000000000000000000000000000000000
000000000000000000000000000000000000000000000000000000
000000000000000000000000000000000000000000000000000000
000000000000000000000000000000000000000000000000000000
000000000000000000000000000000000000000000000000000000
000000000000000000000000000000000000000000000000000000
000000000000000000000000000000000000000000000000000000
000000000000000000000000000000000000000000000000000000
000000000000000000000000000000000000000000000000000000
000000000000000000000000000000000000000000000000000000
000000000000000000000000000000000000000000000000000000
000000000000000000000000000000000000000000000000000000
000000000000000000000000000000000000000000000000000000
000000000000000000000000000000000000000000000000000000
000000000000000000000000000000000000000000000000000000

.logic_tile 16 2
000000000000000000000000000000000000000000000000000000
000000000000000000000000000000000000000000000000000000
000000000000000000000000000000000000000000000000000000
000000000000000000000000000000000000000000000000000000
000000000000000000000000000000000000000000000000000000
000000000000000000000000000000000000000000000000000000
000000000000000000000000000000000000000000000000000000
000000000000000000000000000000000000000000000000000000
000000000000000000000000000000000000000000000000000000
000000000000000000000000000000000000000000000000000000
000000000000000000000000000000000000000000000000000000
000000000000000000000000000000000000000000000000000000
000000000000000000000000000000000000000000000000000000
000000000000000000000000000000000000000000000000000000
000000000000000000000000000000000000000000000000000000
000000000000000000000000000000000000000000000000000000

.logic_tile 17 2
000000000000000000000000000000000000000000000000000000
000000000000000000000000000000000000000000000000000000
011000000000000000000000000000000000000000000000000000
000000000000000000000000000000000000000000000000000000
000000000000000000000111100000000000000000000000000000
000000000000000000000000000000000000000000000000000000
000000000000000000000000000000000000000000000000000000
000000000000000000000000000000000000000000000000000000
000000000000000000000000000000000000000000000000000000
000000000000000000000000000000000000000000000000000000
000000000000000000000000000000000000000000000000000000
000000000000000000000000000000000000000000000000000000
000000000000000000000000000000000000000000000100000000
000000000000000000000000001101000000000010000001000000
000000000000000000000000000000000000000000000000000000
000000000000000000000000000000000000000000000000000000

.logic_tile 18 2
000000000000000000000000000000000000000000000000000000
000000000000000000000000000000000000000000000000000000
000000000000000000000000000000000000000000000000000000
000000000000000000000000000000000000000000000000000000
000000000000000000000000000000000000000000000000000000
000000000000000000000000000000000000000000000000000000
000000000000000000000000000000000000000000000000000000
000000000000000000000000000000000000000000000000000000
000000000000000000000000000000000000000000000000000000
000000000000000000000000000000000000000000000000000000
000000000000000000000000000000000000000000000000000000
000000000000000000000000000000000000000000000000000000
000000000000000000000000000000000000000000000000000000
000000000000000000000000000000000000000000000000000000
000000000000000000000000000000000000000000000000000000
000000000000000000000000000000000000000000000000000000

.ramt_tile 19 2
000000000000000000000000000000000000000000
000000000000000000000000000000000000000000
000000000000000000000000000000000000000000
000000000000000000000000000000000000000000
000000000000000000000000000000000000000000
000000000000000000000000000000000000000000
000000000000000000000000000000000000000000
000000000000000000000000000000000000000000
000000000000000000000000000000000000000000
000000000000000000000000000000000000000000
000000000000000000000000000000000000000000
000000000000000000000000000000000000000000
000000000000000000000000000000000000000000
000000000000000000000000000000000000000000
000000000000000000000000000000000000000000
000000000000000000000000000000000000000000

.logic_tile 20 2
000000000000000000000000000000000000000000000000000000
000000000000000000000000000000000000000000000000000000
011000000000000000000000000000000000000000000000000000
000000000000000000000000000000000000000000000000000000
000000000000000000000000000000000000000000000000000000
000000000000000000000000000000000000000000000000000000
000000000000000000000111100000000000000000000000000000
000000000000000000000100000000000000000000000000000000
000000100000000000000000000000000000000000000000000000
000001000000000000000000000000000000000000000000000000
000000000000000000000000000000000000000000000000000000
000000000000000000000000000000000000000000000000000000
000000000000000000000000000000000000000000000000000000
000000000000000000000000000000000000000000000000000000
000000000000000000000000000000011010000100000100000000
000000000000000000000000000000010000000000000001000000

.logic_tile 21 2
000000000000000000000000000000000000000000000000000000
000000000000000000000000000000000000000000000000000000
000000000000000000000000000000000000000000000000000000
000000000000000000000000000000000000000000000000000000
000000000000000000000000000000000000000000000000000000
000000000000000000000000000000000000000000000000000000
000000000000000000000000000000000000000000000000000000
000000000000000000000000000000000000000000000000000000
000000000000000000000000000000000000000000000000000000
000000000000000000000000000000000000000000000000000000
000000000000000000000000000000000000000000000000000000
000000000000000000000000000000000000000000000000000000
000000000000000000000000000000000000000000000000000000
000000000000000000000000000000000000000000000000000000
000000000000000000000000000000000000000000000000000000
000000000000000000000000000000000000000000000000000000

.logic_tile 22 2
000000000000000000000000000000000000000000000000000000
000000000000000000000000000000000000000000000000000000
000000000000000000000000000000000000000000000000000000
000000000000000000000000000000000000000000000000000000
000000000000000000000000000000000000000000000000000000
000000000000000000000000000000000000000000000000000000
000000000000000000000000000000000000000000000000000000
000000000000000000000000000000000000000000000000000000
000000000000000000000000000000000000000000000000000000
000000000000000000000000000000000000000000000000000000
000000000000000000000000000000000000000000000000000000
000000000000000000000000000000000000000000000000000000
000000000000000000000000000000000000000000000000000000
000000000000000000000000000000000000000000000000000000
000000000000000000000000000000000000000000000000000000
000000000000000000000000000000000000000000000000000000

.logic_tile 23 2
000000000000000000000000000000000000000000000000000000
000000000000000000000000000000000000000000000000000000
000000000000000000000000000000000000000000000000000000
000000000000000000000000000000000000000000000000000000
000000000000000000000000000000000000000000000000000000
000000000000000000000000000000000000000000000000000000
000000000000000000000000000000000000000000000000000000
000000000000000000000000000000000000000000000000000000
000000000000000000000000000000000000000000000000000000
000000000000000000000000000000000000000000000000000000
000000000000000000000000000000000000000000000000000000
000000000000000000000000000000000000000000000000000000
000000000000000000000000000000000000000000000000000000
000000000000000000000000000000000000000000000000000000
000000000010000000000000000000000000000000000000000000
000000000000000000000000000000000000000000000000000000

.logic_tile 24 2
000010000000000000000000000000000000000000000000000000
000000000000000000000000000000000000000000000000000000
000000000000000000000000000000000000000000000000000000
000000000000000000000000000000000000000000000000000000
000000000000000000000000000000000000000000000000000000
000000000000000000000000000000000000000000000000000000
000000000000000000000000000000000000000000000000000000
000000000000000000000000000000000000000000000000000000
000000000000000000000000000000000000000000000000000000
000000000000000000000000000000000000000000000000000000
000000000000000000000000000000000000000000000000000000
000000000000000000000000000000000000000000000000000000
000000000000000000000000000000000000000000000000000000
000000000000000000000000000000000000000000000000000000
000000000000000000000000000000000000000000000000000000
000000000000000000000000000000000000000000000000000000

.ipcon_tile 25 2
000000000000000000000000000000000000110000110000001000
000000000000000000000000000000000000110000110000000000
000000000000000000000000000000000000110000110000001000
000000000000000000000000000000000000110000110000000000
000000000000000000000000000000000000110000110000001000
000000000000000000000000000000000000110000110000000000
000000000000000000000000000000000000110000110000001000
000000000000000000000000000000000000110000110000000000
000000000000000000000000000000000000110000110000001000
000000000000000000000000000000000000110000110000000000
000000000000000000000000000000000000110000110000001000
000000000000000000000000000000000000110000110000000000
000000000000000000000000000000000000110000110000001000
000000000000000000000000000000000000110000110000000000
000000000000000000000000000000000000110000110000001000
000000000000000000000000000000000000110000110000000000

.ipcon_tile 0 3
000000000000000000000000000000000000110000110000001000
000000000000000000000000000000000000110000110000000000
000000000000000000000000000000000000110000110000001000
000000000000000000000000000000000000110000110000000000
000000000000000000000000000000000000110000110000001000
000000000000000000000000000000000000110000110000000000
000000000000000000000000000000000000110000110000001000
000000000000000000000000000000000000110000110000000000
000000000000000000000000000000000000110000110000001000
000000000000000000000000000000000000110000110000000000
000000000000000000000000000000000000110000110000001000
000000000000000000000000000000000000110000110000000000
000000000000000000000000000000000000110000110000001000
000000000000000000000000000000000000110000110000000000
000000000000000000000000000000000000110000110000001000
000000000000000000000000000000000000110000110000000000

.logic_tile 1 3
000000000000000000000000000000000000000000000000000000
000000000000000000000000000000000000000000000000000000
000000000000000000000000000000000000000000000000000000
000000000000000000000000000000000000000000000000000000
000000000000000000000000000000000000000000000000000000
000000000000000000000000000000000000000000000000000000
000000000000000000000000000000000000000000000000000000
000000000000000000000000000000000000000000000000000000
000000000000000000000000000000000000000000000000000000
000000000000000000000000000000000000000000000000000000
000000000000000000000000000000000000000000000000000000
000000000000000000000000000000000000000000000000000000
000000000000000000000000000000000000000000000000000000
000000000000000000000000000000000000000000000000000000
000000000000000000000000000000000000000000000000000000
000000000000000000000000000000000000000000000000000000

.logic_tile 2 3
000000000000000000000000000000000000000000000000000000
000000000000000000000000000000000000000000000000000000
000000000000000000000000000000000000000000000000000000
000000000000000000000000000000000000000000000000000000
000000000000000000000000000000000000000000000000000000
000000000000000000000000000000000000000000000000000000
000000000000000000000000000000000000000000000000000000
000000000000000000000000000000000000000000000000000000
000000000000000000000000000000000000000000000000000000
000000000000000000000000000000000000000000000000000000
000000000000000000000000000000000000000000000000000000
000000000000000000000000000000000000000000000000000000
000000000000000000000000000000000000000000000000000000
000000000000000000000000000000000000000000000000000000
000000000000000000000000000000000000000000000000000000
000000000000000000000000000000000000000000000000000000

.logic_tile 3 3
000000000000000000000000000000000000000000000000000000
000000000000000000000000000000000000000000000000000000
000000000000000000000000000000000000000000000000000000
000000000000000000000000000000000000000000000000000000
000000000000000000000000000000000000000000000000000000
000000000000000000000000000000000000000000000000000000
000000000000000000000000000000000000000000000000000000
000000000000000000000000000000000000000000000000000000
000000000000000000000000000000000000000000000000000000
000000000000000000000000000000000000000000000000000000
000000000000000000000000000000000000000000000000000000
000000000000000000000000000000000000000000000000000000
000000000000000000000000000000000000000000000000000000
000000000000000000000000000000000000000000000000000000
000000000000000000000000000000000000000000000000000000
000000000000000000000000000000000000000000000000000000

.logic_tile 4 3
000000000000000000000000000000000000000000000000000000
000000000000000000000000000000000000000000000000000000
000000000000000000000000000000000000000000000000000000
000000000000000000000000000000000000000000000000000000
000000000000000000000000000000000000000000000000000000
000000000000000000000000000000000000000000000000000000
000000000000000000000000000000000000000000000000000000
000000000000000000000000000000000000000000000000000000
000000000000000000000000000000000000000000000000000000
000000000000000000000000000000000000000000000000000000
000000000000000000000000000000000000000000000000000000
000000000000000000000000000000000000000000000000000000
000000000000000000000000000000000000000000000000000000
000000000000000000000000000000000000000000000000000000
000000000000000000000000000000000000000000000000000000
000000000000000000000000000000000000000000000000000000

.logic_tile 5 3
000000000000000000000000000000000000000000000000000000
000000000000000000000000000000000000000000000000000000
000000000000000000000000000000000000000000000000000000
000000000000000000000000000000000000000000000000000000
000000000000000000000000000000000000000000000000000000
000000000000000000000000000000000000000000000000000000
000000000000000000000000000000000000000000000000000000
000000000000000000000000000000000000000000000000000000
000000000000000000000000000000000000000000000000000000
000000000000000000000000000000000000000000000000000000
000000000000000000000000000000000000000000000000000000
000000000000000000000000000000000000000000000000000000
000000000000000000000000000000000000000000000000000000
000000000000000000000000000000000000000000000000000000
000000000000000000000000000000000000000000000000000000
000000000000000000000000000000000000000000000000000000

.ramb_tile 6 3
000000000000000000000000000000000000000000
000000000000000000000000000000000000000000
000000000000000000000000000000000000000000
000000000000000000000000000000000000000000
000000000000000000000000000000000000000000
000000000000000000000000000000000000000000
000000000000000000000000000000000000000000
000000000000000000000000000000000000000000
000000000000000000000000000000000000000000
000000000000000000000000000000000000000000
000000000000000000000000000000000000000000
000000000000000000000000000000000000000000
000000000000000000000000000000000000000000
000000000000000000000000000000000000000000
000000000000000000000000000000000000000000
000000000000000000000000000000000000000000

.logic_tile 7 3
000000000000000101000000000101100000000000001000000000
000000000000000000100010110000001001000000000000001000
000000000000000000000010100111000000000000001000000000
000000000000000000000100000000001100000000000000000000
000000000000000000000000000111000001000000001000000000
000000000000000000000000000000101010000000000000000000
000000000000000101000010000111000001000000001000000000
000000000000001101100100000000101001000000000000000000
000000000000000101100000000001000001000000001000000000
000000000000000000000010100000001100000000000000000000
000010100000001101100110110101100001000000001000000000
000001000000000101000010100000101100000000000000000000
000000000000000101000110110111100001000000001000000000
000000000000000000000010100000001101000000000000000000
000000000000000000000000000011000001000000001000000000
000000000000000101000000000000101101000000000000000000

.logic_tile 8 3
000000000000000000000000010111100000000000001000000000
000000000000000000000010000000000000000000000000001000
001000000000000000000000000111011100001100111100000000
000000000000000000000000000000000000110011000000000000
000000000000000000000000000000001000001100111100000000
000000000000000000000000000000001001110011000000000000
000000000000001001100000000000001000001100111100000000
000000000000000001000000000000001101110011000000000000
000000000000000000000110000101101000001100111100000000
000000000000000000000000000000000000110011000000000000
000000000000000000000110010101101000001100111100000000
000000000000001101000010000000000000110011000000000000
000000000000000001100000000000001001001100111100000000
000000000000000000000000000000001101110011000000000000
000000000000000000000000000000001001001100110100000000
000000000000001101000000000000001101110011000000000000

.logic_tile 9 3
000000000001000000000000000000000000000000000000000000
000000000100000101000000000000000000000000000000000000
011000000000000000000010110000000000000000000000000000
000000000000000101000011100000000000000000000000000000
110000000000000000000000000000000000000000000100000000
000000000000000000000000000001000000000010000000000000
000000000000000001100000010001100000000000000100000000
000000000000000000100010010000000000000001000000000000
000000000000000000000000000111111110010100000010000100
000000000000000000000000000000010000010100000000000001
000000000000000000000000000000000000000000000000000000
000000000000000000000000000000000000000000000000000000
000000000000000000000000000000011000000100000100000000
000000000000000000000000000000010000000000000000000000
000010000000001000000000011001111011101000010000000000
000001000000000101000010001101101110100000010000100000

.logic_tile 10 3
000000000000000101000000011000000000010110100000000000
000000000000000000000011001101000000101001010000000000
011000000000001101000111101011101011100000010000000001
000000000000001001000000000001011001110000010011000000
110000000000000000000010101011000000000000000010000000
000000000000000000000000000011100000101001010010000100
000000000000000101000010100000000000000000000100000000
000000001100001101100100001111000000000010000000000000
000000000000000000000110000001011111100000000000000100
000000000010000000000000001001011000000000000000000000
000000000000001001100000000000000001001111000000000000
000000000000000001100000000000001010001111000000000000
000000000000000000000000000000011100000100000100000000
000000000000000000000011100000000000000000000000000000
000000000000000000000000000101100000010110100000000000
000000000000000000000010000000000000010110100000000000

.logic_tile 11 3
000010000000000101000010100001000000000000001000000000
000001000000000101100100000000001011000000000000001000
000000000000000101000000000001000000000000001000000000
000001000000000000000000000000001100000000000000000000
000000000000001000000010100001100000000000001000000000
000000000000000101000000000000001101000000000000000000
000000000000000101100110100111000000000000001000000000
000000000000000000000000000000101111000000000000000000
000000000000000101100000010111100001000000001000000000
000000000000000000000010100000001010000000000000000000
000000000000000000000110110111100000000000001000000000
000000000000000000000010100000001010000000000000000000
000000000000000000000110100001000001000000001000000000
000000000000010000000010110000101101000000000000000000
000000100000011101100000000101100001000000001000000000
000001000000100101000000000000101101000000000000000000

.logic_tile 12 3
000000000110000001100110000011000000000000001000000000
000000000000000000000000000000000000000000000000001000
001000000000001000000110000000001110001100111100000000
000000000000000001000000000000001000110011000000000000
000000000000000000000000010101001000001100111100000000
000000000000000000000010000000100000110011000000000000
000001000000000000000000010000001000001100111100000000
000000000000000000000010000000001001110011000000000000
000000100000000101000000000000001001001100111100000000
000000000000000000100000000000001000110011000000000000
000000000000000000000000000111101000001100111100000000
000000000000000000000000000000000000110011000000000000
000000000000000101000000000101101000001100111100000000
000000000000000000100000000000100000110011000000000000
000000000000000001100000001000001000001100110100000000
000000000000000000000000001001000000110011000000000000

.logic_tile 13 3
000010000000000000000000000000000000000000000000000000
000000000000000000000000000000000000000000000000000000
000000000000100000000000000000000000000000000000000000
000000000000000000000000000000000000000000000000000000
000000000000000000000000000000000000000000000000000000
000000000000000000000000000000000000000000000000000000
000000000000000000000000000000000000000000000000000000
000000000000000000000000000000000000000000000000000000
000000000000100000000000000000000000000000000000000000
000000000000000000000000000000000000000000000000000000
000000000000000000000000000000000000000000000000000000
000000000000000000000000000000000000000000000000000000
000000000000000000000000000000000000000000000000000000
000000000000000000000000000000000000000000000000000000
000000000000000000000000000000000000000000000000000000
000000000000000000000000000000000000000000000000000000

.logic_tile 14 3
000000000000000000000000000000000000000000000000000000
000000000000000000000000000000000000000000000000000000
000000000000000000000000000000000000000000000000000000
000000000000000000000000000000000000000000000000000000
000000000000000000000000000000000000000000000000000000
000000000000000000000000000000000000000000000000000000
000000000000000000000000000000000000000000000000000000
000000000000000000000000000000000000000000000000000000
000000000000000000000000000000000000000000000000000000
000000000000000000000000000000000000000000000000000000
000000000000000000000000000000000000000000000000000000
000000000000000000000000000000000000000000000000000000
000000000000000000000000000000000000000000000000000000
000000000000000000000000000000000000000000000000000000
000000000000000000000000000000000000000000000000000000
000000000000000000000000000000000000000000000000000000

.logic_tile 15 3
000000000000000000000000000000000000000000000000000000
000000000000000000000000000000000000000000000000000000
000000000000000000000000000000000000000000000000000000
000000000000000000000000000000000000000000000000000000
000000000000000000000000000000000000000000000000000000
000000000000000000000000000000000000000000000000000000
000000000000000000000000000000000000000000000000000000
000000000000000000000000000000000000000000000000000000
000000000000000000000000000000000000000000000000000000
000000000000000000000000000000000000000000000000000000
000000000000000000000000000000000000000000000000000000
000000000000000000000000000000000000000000000000000000
000000000000000000000000000000000000000000000000000000
000000000000000000000000000000000000000000000000000000
000000000000000000000000000000000000000000000000000000
000000000000000000000000000000000000000000000000000000

.logic_tile 16 3
000000000000000000000000000000000000000000000000000000
000000000000000000000000000000000000000000000000000000
000000000000000000000000000000000000000000000000000000
000000000000000000000000000000000000000000000000000000
000000000000000000000000000000000000000000000000000000
000000000000000000000000000000000000000000000000000000
000000000000000000000000000000000000000000000000000000
000000000000000000000000000000000000000000000000000000
000000000000000000000000000000000000000000000000000000
000000000000000000000000000000000000000000000000000000
000000000000000000000000000000000000000000000000000000
000000000000000000000000000000000000000000000000000000
000000000000000000000000000000000000000000000000000000
000000000000000000000000000000000000000000000000000000
000000000000000000000000000000000000000000000000000000
000000000000000000000000000000000000000000000000000000

.logic_tile 17 3
000000000000000000000000000000000000000000000000000000
000000000000000000000000000000000000000000000000000000
000000000000000000000000000000000000000000000000000000
000000000000000000000000000000000000000000000000000000
000000000000000000000000000000000000000000000000000000
000000000000000000000000000000000000000000000000000000
000000000000000000000000000000000000000000000000000000
000000000000000000000000000000000000000000000000000000
000000000000000000000000000000000000000000000000000000
000000000001000000000000000000000000000000000000000000
000000000000000000000000000000000000000000000000000000
000000000000000000000000000000000000000000000000000000
000000000000000000000000000000000000000000000000000000
000000000000000000000000000000000000000000000000000000
000000000000000000000000000000000000000000000000000000
000000000000000000000000000000000000000000000000000000

.logic_tile 18 3
000000000000000000000000000000000000000000000000000000
000000000000000000000000000000000000000000000000000000
000000000000000000000000000000000000000000000000000000
000000000000000000000000000000000000000000000000000000
000000000000000000000000000000000000000000000000000000
000000000000000000000000000000000000000000000000000000
000000000000000000000000000000000000000000000000000000
000000000000000000000000000000000000000000000000000000
000000000000000000000000000000000000000000000000000000
000000000000000000000000000000000000000000000000000000
000000000000000000000000000000000000000000000000000000
000000000000000000000000000000000000000000000000000000
000000000000000000000000000000000000000000000000000000
000000000000000000000000000000000000000000000000000000
000000000000000000000000000000000000000000000000000000
000000000000000000000000000000000000000000000000000000

.ramb_tile 19 3
000000000000000000000000000000000000000000
000000000000000000000000000000000000000000
000000000000000000000000000000000000000000
000000000000000000000000000000000000000000
000000000000000000000000000000000000000000
000000000000000000000000000000000000000000
000000000000000000000000000000000000000000
000000000000000000000000000000000000000000
000000000000000000000000000000000000000000
000000000000000000000000000000000000000000
000000000000000000000000000000000000000000
000000000000000000000000000000000000000000
000000000000000000000000000000000000000000
000000000000000000000000000000000000000000
000000000000000000000000000000000000000000
000000000000000000000000000000000000000000

.logic_tile 20 3
000000000000000000000000000000000000000000000000000000
000000000000000000000000000000000000000000000000000000
000000000000000000000000000000000000000000000000000000
000000000000000000000000000000000000000000000000000000
000000000000000000000000000000000000000000000000000000
000000000000000000000000000000000000000000000000000000
000000000000000000000000000000000000000000000000000000
000000000000000000000000000000000000000000000000000000
000000000000000000000000000000000000000000000000000000
000000000000000000000000000000000000000000000000000000
000000000000000000000000000000000000000000000000000000
000000000000000000000000000000000000000000000000000000
000000000000000000000000000000000000000000000000000000
000000000000000000000000000000000000000000000000000000
000000000000000000000000000000000000000000000000000000
000000000000000000000000000000000000000000000000000000

.logic_tile 21 3
000000000000000000000000000000000000000000000000000000
000000000000000000000000000000000000000000000000000000
000000000000000000000000000000000000000000000000000000
000000000000000000000000000000000000000000000000000000
000000001010000000000000000000000000000000000000000000
000000000000000000000000000000000000000000000000000000
000000000000000000000000000000000000000000000000000000
000000000000000000000000000000000000000000000000000000
000000000000000000000000000000000000000000000000000000
000000000000000000000000000000000000000000000000000000
000000000000000000000000000000000000000000000000000000
000000000000000000000000000000000000000000000000000000
000000000000000000000000000000000000000000000000000000
000000000000000000000000000000000000000000000000000000
000000000000000000000000000000000000000000000000000000
000000000000000000000000000000000000000000000000000000

.logic_tile 22 3
000000000000000000000000000000000000000000000000000000
000000000000000000000000000000000000000000000000000000
000000000000000000000000000000000000000000000000000000
000000000000000000000000000000000000000000000000000000
000000000000000000000000000000000000000000000000000000
000000000000000000000000000000000000000000000000000000
000000000000000000000000000000000000000000000000000000
000000000000000000000000000000000000000000000000000000
000000000000000000000000000000000000000000000000000000
000000000000000000000000000000000000000000000000000000
000000000000000000000000000000000000000000000000000000
000000000000000000000000000000000000000000000000000000
000000000000000000000000000000000000000000000000000000
000000000000000000000000000000000000000000000000000000
000000000000000000000000000000000000000000000000000000
000000000000000000000000000000000000000000000000000000

.logic_tile 23 3
000000000000000000000000000000000000000000000000000000
000000000000000000000000000000000000000000000000000000
000000000000000000000000000000000000000000000000000000
000000000000000000000000000000000000000000000000000000
000000000000000000000000000000000000000000000000000000
000000000000000000000000000000000000000000000000000000
000000000000000000000000000000000000000000000000000000
000000000000000000000000000000000000000000000000000000
000000000000000000000000000000000000000000000000000000
000000000000000000000000000000000000000000000000000000
000000000000000000000000000000000000000000000000000000
000000000000000000000000000000000000000000000000000000
000000000000000000000000000000000000000000000000000000
000000000000000000000000000000000000000000000000000000
000000000000000000000000000000000000000000000000000000
000000000000000000000000000000000000000000000000000000

.logic_tile 24 3
000000000000000000000000000000000000000000000000000000
000000000000000000000000000000000000000000000000000000
000000000000000000000000000000000000000000000000000000
000000000000000000000000000000000000000000000000000000
000000000000000000000000000000000000000000000000000000
000000000000000000000000000000000000000000000000000000
000000000000000000000000000000000000000000000000000000
000000000000000000000000000000000000000000000000000000
000000000000000000000000000000000000000000000000000000
000000000000000000000000000000000000000000000000000000
000000000000000000000000000000000000000000000000000000
000000000000000000000000000000000000000000000000000000
000000000000000000000000000000000000000000000000000000
000000000000000000000000000000000000000000000000000000
000000000000000000000000000000000000000000000000000000
000000000000000000000000000000000000000000000000000000

.ipcon_tile 25 3
000000000000000000000000000000000000110000110000001000
000000000000000000000000000000000000110000110000000000
000000000000000000000000000000000000110000110000001000
000000000000000000000000000000000000110000110000000000
000000000000000000000000000000000000110000110000001000
000000000000000000000000000000000000110000110000000000
000000000000000000000000000000000000110000110000001000
000000000000000000000000000000000000110000110000000000
000000000000000000000000000000000000110000110000001000
000000000000000000000000000000000000110000110000000000
000000000000000000000000000000000000110000110000001000
000000000000000000000000000000000000110000110000000000
000000000000000000000000000000000000110000110000001000
000000001110000000000000000000000000110000110000000000
000000000000000000000000000000000000110000110000001000
000000000000000000000000000000000000110000110000000000

.ipcon_tile 0 4
000000000000000000000000000000000000110000110000001000
000000000000000000000000000000000000110000110000000000
000000000000000000000000000000000000110000110000001000
000000000000000000000000000000000000110000110000000000
000000000000000000000000000000000000110000110000001000
000000000000000000000000000000000000110000110000000000
000000000000000000000000000000000000110000110000001000
000000000000000000000000000000000000110000110000000000
000000010000000000000000000000000000110000110000001000
000000010000000000000000000000000000110000110000000000
000000010000000000000000000000000000110000110000001000
000000010000000000000000000000000000110000110000000000
000000010000000000000000000000000000110000110000001000
000000010000000000000000000000000000110000110000000000
000000010000000000000000000000000000110000110000001000
000000010000000000000000000000000000110000110000000000

.logic_tile 1 4
000000000000000000000000000000000000000000000000000000
000000000000000000000000000000000000000000000000000000
000000000000000000000000000000000000000000000000000000
000000000000000000000000000000000000000000000000000000
000000000000000000000000000000000000000000000000000000
000000000000000000000000000000000000000000000000000000
000000000000000000000000000000000000000000000000000000
000000000000000000000000000000000000000000000000000000
000000010000000000000000000000000000000000000000000000
000000010000000000000000000000000000000000000000000000
000000010000000000000000000000000000000000000000000000
000000010000000000000000000000000000000000000000000000
000000010000000000000000000000000000000000000000000000
000000010000000000000000000000000000000000000000000000
000000010000000000000000000000000000000000000000000000
000000010000000000000000000000000000000000000000000000

.logic_tile 2 4
000000000000000000000000000000000000000000000000000000
000000000000000000000000000000000000000000000000000000
000000000000000000000000000000000000000000000000000000
000000000000000000000000000000000000000000000000000000
000000000000000000000000000000000000000000000000000000
000000000000000000000000000000000000000000000000000000
000000000000000000000000000000000000000000000000000000
000000000000000000000000000000000000000000000000000000
000000010000000000000000000000000000000000000000000000
000000010000000000000000000000000000000000000000000000
000000010000000000000000000000000000000000000000000000
000000010000000000000000000000000000000000000000000000
000000010000000000000000000000000000000000000000000000
000000010000000000000000000000000000000000000000000000
000000010000000000000000000000000000000000000000000000
000000010000000000000000000000000000000000000000000000

.logic_tile 3 4
000000000000000000000000000000000000000000000000000000
000000000000000000000000000000000000000000000000000000
000000000000000000000000000000000000000000000000000000
000000000000000000000000000000000000000000000000000000
000000000000000000000000000000000000000000000000000000
000000000000000000000000000000000000000000000000000000
000000000000000000000000000000000000000000000000000000
000000000000000000000000000000000000000000000000000000
000000010000000000000000000000000000000000000000000000
000000010000000000000000000000000000000000000000000000
000000010000000000000000000000000000000000000000000000
000000010000000000000000000000000000000000000000000000
000000010000000000000000000000000000000000000000000000
000000010000000000000000000000000000000000000000000000
000000010000000000000000000000000000000000000000000000
000000010000000000000000000000000000000000000000000000

.logic_tile 4 4
000000000000000000000000000000000000000000000000000000
000000000000000000000000000000000000000000000000000000
000000000000000000000000000000000000000000000000000000
000000000000000000000000000000000000000000000000000000
000000000000000000000000000000000000000000000000000000
000000000000000000000000000000000000000000000000000000
000000000000000000000000000000000000000000000000000000
000000000000000000000000000000000000000000000000000000
000000010000000000000000000000000000000000000000000000
000000010000000000000000000000000000000000000000000000
000000010000000000000000000000000000000000000000000000
000000010000000000000000000000000000000000000000000000
000000010000000000000000000000000000000000000000000000
000000010000000000000000000000000000000000000000000000
000000010000000000000000000000000000000000000000000000
000000010000000000000000000000000000000000000000000000

.logic_tile 5 4
000000000000000000000000000000000000000000000000000000
000000000000000000000000000000000000000000000000000000
000000000000000000000000000000000000000000000000000000
000000000000000000000000000000000000000000000000000000
000000000000000000000000000000000000000000000000000000
000000000000000000000000000000000000000000000000000000
000000000000000000000000000000000000000000000000000000
000000000000000000000000000000000000000000000000000000
000000010000000000000000000000000000000000000000000000
000000010000000000000000000000000000000000000000000000
000000010000000000000000000000000000000000000000000000
000000010000000000000000000000000000000000000000000000
000000010000000000000000000000000000000000000000000000
000000010000000000000000000000000000000000000000000000
000000010000000000000000000000000000000000000000000000
000000010000000000000000000000000000000000000000000000

.ramt_tile 6 4
000000000000000000000000000000000000000000
000000000000000000000000000000000000000000
000000000000000000000000000000000000000000
000000000000000000000000000000000000000000
000000000000000000000000000000000000000000
000000000000000000000000000000000000000000
000000000000000000000000000000000000000000
000000000000000000000000000000000000000000
000000010000000000000000000000000000000000
000000010000000000000000000000000000000000
000000010000000000000000000000000000000000
000000010000000000000000000000000000000000
000000010000000000000000000000000000000000
000000010000000000000000000000000000000000
000000010000000000000000000000000000000000
000000010000000000000000000000000000000000

.logic_tile 7 4
000000000000000000000000000000001000000011110100000000
000000000000000000000000000000000000000011110001010000
001000000000000000000000000000000000001111000000000000
000000000000000000000000000000001100001111000000000000
000000000000000000000000000111100000010110100000000000
000000000000000000000000000000100000010110100000000000
000000000000001000000000000000000000000000000000000000
000000000000000001000000000000000000000000000000000000
000000010000000101000000000000011010000011110100000000
000000010000000000000010100000000000000011110000000000
000000010000000000000000000000001100000011110000000000
000000010000000000000000000000010000000011110000000000
000000010000001000000000000000001110000011110000000000
000000010000000101000000000000000000000011110000100000
000000010000000000000010100000011110000011110000000000
000000010000000000000010100000010000000011110000000000

.logic_tile 8 4
000000000000000000000000001000000000000000000100000000
000000000000000000000000000111000000000010000000000000
011000000000000000000000000000000001001111000000000000
000000000000000000000000000000001111001111000000000000
010000000000000000000010000000000000010110100000000000
110000000000000000000000001011000000101001010000000000
000000000000010000000000010000000000000000000100100000
000000000000100000000011100111000000000010000000000000
000000010000000000000000011000000000010110100000000000
000000010000000000000010101111000000101001010000000000
000000010000001000000000000011100000000000000100000000
000000010000000101000000000000000000000001000000100000
000000010000001000000110100101100000000000000100000000
000000010000000101000000000000100000000001000000100000
000000010000010101100110110000001110000100000100000000
000000010000100000000010100000010000000000000000100000

.logic_tile 9 4
000000000000000000000010110101100001001001000010000000
000000000000000000000010010000001000001001000010000010
011000000001011000000011101001101101100000010000000001
000000000000101001000100000111011001110000010000000010
010000000000000000000010001000000000000000000100000000
110000000000000000000010100101000000000010000000000000
000000000000000001100000000011011000000001010010000001
000000001110001101000000000000000000000001010010000001
000000010000010000000000001000001010010100000010000100
000000010000100001000010000001010000101000000010000000
000010110000000000000000000001100000000000000010000100
000001010000000000000000001001000000010110100010000000
000000010000000000000110100000000000000000100100000000
000000010000000000000000000000001001000000000000000000
000000010000000000000000000111000000000000000100000000
000000010000000001000000000000100000000001000000000000

.logic_tile 10 4
000000000000000000000000010000001010000100000100000000
000000000000000000000011110000000000000000000000000000
011000000000000000000000000000000000000000100100000000
000000000000000101000000000000001101000000000000000000
110000000000001000000110100000000000010110100000000000
110000000000000101000010000011000000101001010000000000
000000000000001101100000000000011000000001010000000000
000000001010000101000000001101000000000010100001100100
000000010000001000000110000000011010000100000100000000
000000010000000001000000000000000000000000000000000000
000000010000000001000010000101100000000000000100000000
000000010000000000000000000000000000000001000000000000
000000010000000000000111101011111100100000010010000010
000000010000000000000100000001101001110000100000000000
000000010000000000000000000000001010000100000100000000
000000010000000000000000000000010000000000000000000000

.logic_tile 11 4
000000000000000000000000000000001000000011110100000000
000000000000000000000000000000000000000011110010010000
001000000000000000000000000111000000010110100100000000
000001000000100000000000000000000000010110100000000000
000000000000000101100000000000000000000000000000000000
000000000000000000000000000000000000000000000000000000
000000000000000000000000000101000000010110100000000000
000000000000000000000000000000000000010110100000000000
000000010000000000000000000000000000000000000000000000
000000010000000000000000000000000000000000000000000000
000001010000000000000000000000000000000000000000000000
000000010000000000000000000000000000000000000000000000
000000010000000001100000000000000000000000000000000000
000000010000000000000000000000000000000000000000000000
000000010000000000000000000000000000000000000000000000
000000010000000000000000000000000000000000000000000000

.logic_tile 12 4
000000000000000000000000010000000000000000000000000000
000000000000000000000011010000000000000000000000000000
011000000000000000000000000000000000000000000000000000
000000000000000000000000000000000000000000000000000000
010000000000000000000000000000000000000000000000000000
010000000000000000000000000000000000000000000000000000
000000000000000000000000000000000000000000000000000000
000000000000000000000000000000000000000000000000000000
000000010000000000000000000000000000000000000000000000
000000010000000000000000000000000000000000000000000000
000000010000000000000000000000000000000000000000000000
000000010000000000000000000000000000000000000000000000
000000010000000000000111100000000000000000100100000000
000000011110000000000100000000001111000000000000000000
000000010000000000000000000000000000000000000000000000
000000010000000000000000000000000000000000000000000000

.logic_tile 13 4
000000000000000000000000000000000000000000000000000000
000000000000000000000000000000000000000000000000000000
000000000000000000000000000000000000000000000000000000
000000000000000000000000000000000000000000000000000000
000000000000000000000000000000000000000000000000000000
000000000000000000000000000000000000000000000000000000
000000000000000000000000000000000000000000000000000000
000000000000000000000000000000000000000000000000000000
000000010000000000000000000000000000000000000000000000
000000010000000000000000000000000000000000000000000000
000000010100000000000000000000000000000000000000000000
000000010000000000000000000000000000000000000000000000
000000010000000000000000000000000000000000000000000000
000000010000000000000000000000000000000000000000000000
000000010000000000000000000000000000000000000000000000
000000010000000000000000000000000000000000000000000000

.logic_tile 14 4
000000000000000000000000000000000000000000000000000000
000000000000000000000000000000000000000000000000000000
000000000000000000000000000000000000000000000000000000
000000000000000000000000000000000000000000000000000000
000000000000000000000000000000000000000000000000000000
000000000000000000000000000000000000000000000000000000
000000000000000000000000000000000000000000000000000000
000000000000000000000000000000000000000000000000000000
000000010000000000000000000000000000000000000000000000
000000010000000000000000000000000000000000000000000000
000000010000000000000000000000000000000000000000000000
000000010000000000000000000000000000000000000000000000
000000010000000000000000000000000000000000000000000000
000000010000000000000000000000000000000000000000000000
000000010000000000000000000000000000000000000000000000
000000010000000000000000000000000000000000000000000000

.logic_tile 15 4
000000000000000000000000000000000000000000000000000000
000000000000000000000000000000000000000000000000000000
000000000000000000000000000000000000000000000000000000
000000000000000000000000000000000000000000000000000000
000000000000000000000000000000000000000000000000000000
000000000000000000000000000000000000000000000000000000
000000000000000000000000000000000000000000000000000000
000000000000000000000000000000000000000000000000000000
000000010000000000000000000000000000000000000000000000
000000010001010000000000000000000000000000000000000000
000000010000000000000000000000000000000000000000000000
000000010000000000000000000000000000000000000000000000
000000010000000000000000000000000000000000000000000000
000000010000000000000000000000000000000000000000000000
000000010000000000000000000000000000000000000000000000
000000010000000000000000000000000000000000000000000000

.logic_tile 16 4
000000000000000000000000000000000000000000000000000000
000000000000000000000000000000000000000000000000000000
000000000000000000000000000000000000000000000000000000
000000000000000000000000000000000000000000000000000000
000000000000000000000000000000000000000000000000000000
000000000000000000000000000000000000000000000000000000
000000000000000000000000000000000000000000000000000000
000000000000000000000000000000000000000000000000000000
000000010000000000000000000000000000000000000000000000
000000010000000000000000000000000000000000000000000000
000000010000000000000000000000000000000000000000000000
000000010000000000000000000000000000000000000000000000
000000010000000000000000000000000000000000000000000000
000000010000000000000000000000000000000000000000000000
000000010000000000000000000000000000000000000000000000
000000010000000000000000000000000000000000000000000000

.logic_tile 17 4
000000000000000000000000000000000000000000000000000000
000000000000000000000000000000000000000000000000000000
000000000000000000000000000000000000000000000000000000
000000000000000000000000000000000000000000000000000000
000000000000000000000000000000000000000000000000000000
000000000000000000000000000000000000000000000000000000
000000000000000000000000000000000000000000000000000000
000000000000000000000000000000000000000000000000000000
000000010000000000000000000000000000000000000000000000
000000010000000000000000000000000000000000000000000000
000000010000000000000000000000000000000000000000000000
000000010000000000000000000000000000000000000000000000
000000010000000000000000000000000000000000000000000000
000000010000000000000000000000000000000000000000000000
000000010000000000000000000000000000000000000000000000
000000010000000000000000000000000000000000000000000000

.logic_tile 18 4
000000000000000000000000000000000000000000000000000000
000000000000000000000000000000000000000000000000000000
000000000000000000000000000000000000000000000000000000
000000000000000000000000000000000000000000000000000000
000000000000000000000000000000000000000000000000000000
000000000000000000000000000000000000000000000000000000
000000000000000000000000000000000000000000000000000000
000000000000000000000000000000000000000000000000000000
000000010000000000000000000000000000000000000000000000
000000010000000000000000000000000000000000000000000000
000000010000000000000000000000000000000000000000000000
000000010000000000000000000000000000000000000000000000
000000010000000000000000000000000000000000000000000000
000000010000000000000000000000000000000000000000000000
000000010000000000000000000000000000000000000000000000
000000010000000000000000000000000000000000000000000000

.ramt_tile 19 4
000000000000000000000000000000000000000000
000000000000000000000000000000000000000000
000000000000000000000000000000000000000000
000000000010000000000000000000000000000000
000000000000000000000000000000000000000000
000000000000000000000000000000000000000000
000000000000000000000000000000000000000000
000000000000000000000000000000000000000000
000000010000000000010000000000000000000000
000000010000000000000000000000000000000000
000000010000000000000000000000000000000000
000000010000000000000000000000000000000000
000000010000000000000000000000000000000000
000000010000000000000000000000000000000000
000000010000000000000000000000000000000000
000000010000000000000000000000000000000000

.logic_tile 20 4
000000000000000000000000000000000000000000000000000000
000000000000000000000000000000000000000000000000000000
000000000000000000000000000000000000000000000000000000
000000000000000000000000000000000000000000000000000000
000000000000000000000000000000000000000000000000000000
000000000000000000000000000000000000000000000000000000
000000000000000000000000000000000000000000000000000000
000000000000000000000000000000000000000000000000000000
000000010000000000000000000000000000000000000000000000
000000010000000000000000000000000000000000000000000000
000000010000000000000000000000000000000000000000000000
000000010000000000000000000000000000000000000000000000
000000010000000000000000000000000000000000000000000000
000000010000000000000000000000000000000000000000000000
000000010000000000000000000000000000000000000000000000
000000010000000000000000000000000000000000000000000000

.logic_tile 21 4
000000000000000000000000000000000000000000000000000000
000000000000000000000000000000000000000000000000000000
000000000000000000000000000000000000000000000000000000
000000000000000000000000000000000000000000000000000000
000000000000000000000000000000000000000000000000000000
000000000000000000000000000000000000000000000000000000
000000000000000000000000000000000000000000000000000000
000000000000000000000000000000000000000000000000000000
000000010000000000000000000000000000000000000000000000
000000010000000000000000000000000000000000000000000000
000000010000000000000000000000000000000000000000000000
000000010000000000000000000000000000000000000000000000
000000010000000000000000000000000000000000000000000000
000000010000000000000000000000000000000000000000000000
000000010000000000000000000000000000000000000000000000
000000010000000000000000000000000000000000000000000000

.logic_tile 22 4
000000000000000000000000000000000000000000000000000000
000000000000000000000000000000000000000000000000000000
000000000000000000000000000000000000000000000000000000
000000000000000000000000000000000000000000000000000000
000000000000000000000000000000000000000000000000000000
000000000000000000000000000000000000000000000000000000
000000000000000000000000000000000000000000000000000000
000000000000000000000000000000000000000000000000000000
000000010000000000000000000000000000000000000000000000
000000010000000000000000000000000000000000000000000000
000000010000000000000000000000000000000000000000000000
000000010000000000000000000000000000000000000000000000
000000010000000000000000000000000000000000000000000000
000000010000000000000000000000000000000000000000000000
000000010000000000000000000000000000000000000000000000
000000010000000000000000000000000000000000000000000000

.logic_tile 23 4
000000000000000000000000000000000000000000000000000000
000000000000000000000000000000000000000000000000000000
000000000000000000000000000000000000000000000000000000
000000000000000000000000000000000000000000000000000000
000000000000000000000000000000000000000000000000000000
000000000000000000000000000000000000000000000000000000
000000000000000000000000000000000000000000000000000000
000000000000000000000000000000000000000000000000000000
000000010000000000000000000000000000000000000000000000
000000010000000000000000000000000000000000000000000000
000000010000000000000000000000000000000000000000000000
000000010000000000000000000000000000000000000000000000
000000010000000000000000000000000000000000000000000000
000000010000000000000000000000000000000000000000000000
000000010000000000000000000000000000000000000000000000
000000010000000000000000000000000000000000000000000000

.logic_tile 24 4
000000000000000000000000000000000000000000000000000000
000000000000000000000000000000000000000000000000000000
000000000000000000000000000000000000000000000000000000
000000000000000000000000000000000000000000000000000000
000000000000000000000000000000000000000000000000000000
000000000000000000000000000000000000000000000000000000
000000000000000000000000000000000000000000000000000000
000000000000000000000000000000000000000000000000000000
000000010000000000000000000000000000000000000000000000
000000010000000000000000000000000000000000000000000000
000000010000000000000000000000000000000000000000000000
000000010000000000000000000000000000000000000000000000
000000010000000000000000000000000000000000000000000000
000000010000000000000000000000000000000000000000000000
000000010000000000000000000000000000000000000000000000
000000010000000000000000000000000000000000000000000000

.ipcon_tile 25 4
000000000000000000000000000000000000110000110000001000
000000000000000000000000000000000000110000110000000000
000000000000000000000000000000000000110000110000001000
000000000000000000000000000000000000110000110000000000
000000000000000000000000000000000000110000110000001000
000000000000000000000000000000000000110000110000000000
000000000000000000000000000000000000110000110000001000
000000000000000000000000000000000000110000110000000000
000000010000000000000000000000000000110000110000001000
000000010000000000000000000000000000110000110000000000
000000010000000000000000000000000000110000110000001000
000000010000000000000000000000000000110000110000000000
000000010000000000000000000000000000110000110000001000
000000010000000000000000000000000000110000110000000000
000000010000000000000000000000000000110000110000001000
000000010000000000000000000000000000110000110000000000

.dsp0_tile 0 5
000000000000000000000000000000000000110000110000001000
000000000000000000000000000000000000110000110000000000
000000000000000000000000000000000000110000110000001000
000000000000000000000000000000000000110000110000000000
000000000000000000000000000000000000110000110000001000
000000000000000000000000000000000000110000110000000000
000000000000000000000000000000000000110000110000001000
000000000000000000000000000000000000110000110000000000
000000010000000000000000000000000000110000110000001000
000000010000000000000000000000000000110000110000000000
000000010000000000000000000000000000110000110000001000
000000010000000000000000000000000000110000110000000000
000000010000000000000000000000000000110000110000001000
000000010000000000000000000000000000110000110000000000
000000010000000000000000000000000000110000110000001000
000000010000000000000000000000000000110000110000000000

.logic_tile 1 5
000000000000000000000000000000000000000000000000000000
000000000000000000000000000000000000000000000000000000
000000000000000000000000000000000000000000000000000000
000000000000000000000000000000000000000000000000000000
000000000000000000000000000000000000000000000000000000
000000000000000000000000000000000000000000000000000000
000000000000000000000000000000000000000000000000000000
000000000000000000000000000000000000000000000000000000
000000010000000000000000000000000000000000000000000000
000000010000000000000000000000000000000000000000000000
000000010000000000000000000000000000000000000000000000
000000010000000000000000000000000000000000000000000000
000000010000000000000000000000000000000000000000000000
000000010000000000000000000000000000000000000000000000
000000010000000000000000000000000000000000000000000000
000000010000000000000000000000000000000000000000000000

.logic_tile 2 5
000000000000000000000000000000000000000000000000000000
000000000000000000000000000000000000000000000000000000
000000000000000000000000000000000000000000000000000000
000000000000000000000000000000000000000000000000000000
000000000000000000000000000000000000000000000000000000
000000000000000000000000000000000000000000000000000000
000000000000000000000000000000000000000000000000000000
000000000000000000000000000000000000000000000000000000
000000010000000000000000000000000000000000000000000000
000000010000000000000000000000000000000000000000000000
000000010000000000000000000000000000000000000000000000
000000010000000000000000000000000000000000000000000000
000000010000000000000000000000000000000000000000000000
000000010000000000000000000000000000000000000000000000
000000010000000000000000000000000000000000000000000000
000000010000000000000000000000000000000000000000000000

.logic_tile 3 5
000000000000000000000000000000000000000000000000000000
000000000000000000000000000000000000000000000000000000
000000000000000000000000000000000000000000000000000000
000000000000000000000000000000000000000000000000000000
000000000000000000000000000000000000000000000000000000
000000000000000000000000000000000000000000000000000000
000000000000000000000000000000000000000000000000000000
000000000000000000000000000000000000000000000000000000
000000010000000000000000000000000000000000000000000000
000000010000000000000000000000000000000000000000000000
000000010000000000000000000000000000000000000000000000
000000010000000000000000000000000000000000000000000000
000000010000000000000000000000000000000000000000000000
000000010000000000000000000000000000000000000000000000
000000010000000000000000000000000000000000000000000000
000000010000000000000000000000000000000000000000000000

.logic_tile 4 5
000000000000000000000000000000000000000000000000000000
000000000000000000000000000000000000000000000000000000
000000000000000000000000000000000000000000000000000000
000000000000000000000000000000000000000000000000000000
000000000000000000000000000000000000000000000000000000
000000000000000000000000000000000000000000000000000000
000000000000000000000000000000000000000000000000000000
000000000000000000000000000000000000000000000000000000
000000010000000000000000000000000000000000000000000000
000000010000000000000000000000000000000000000000000000
000000010000000000000000000000000000000000000000000000
000000010000000000000000000000000000000000000000000000
000000010000000000000000000000000000000000000000000000
000000010000000000000000000000000000000000000000000000
000000010000000000000000000000000000000000000000000000
000000010000000000000000000000000000000000000000000000

.logic_tile 5 5
000000000000000000000000000000000000000000000000000000
000000000000000000000000000000000000000000000000000000
000000000000000000000000000000000000000000000000000000
000000000000000000000000000000000000000000000000000000
000000000000000000000000000000000000000000000000000000
000000000000000000000000000000000000000000000000000000
000000000000000000000000000000000000000000000000000000
000000000000000000000000000000000000000000000000000000
000000010000000000000000000000000000000000000000000000
000000010000000000000000000000000000000000000000000000
000000010000000000000000000000000000000000000000000000
000000010000000000000000000000000000000000000000000000
000000010000000000000000000000000000000000000000000000
000000010000000000000000000000000000000000000000000000
000000010000000000000000000000000000000000000000000000
000000010000000000000000000000000000000000000000000000

.ramb_tile 6 5
000000000000000000000000000000000000000000
000000000000000000000000000000000000000000
000000000000000000000000000000000000000000
000000000000000000000000000000000000000000
000000000000000000000000000000000000000000
000000000000000000000000000000000000000000
000000000000000000000000000000000000000000
000000000000000000000000000000000000000000
000000010000000000000000000000000000000000
000000010000000000000000000000000000000000
000000010000000000000000000000000000000000
000000010000000000000000000000000000000000
000000010000000000000000000000000000000000
000000010000000000000000000000000000000000
000000010000000000000000000000000000000000
000000010000000000000000000000000000000000

.logic_tile 7 5
000000000000000111100000000111100000000000000100000000
000000000000000000100011110000100000000001000000000000
011000000000000000000000000000000000000000000000000000
000000000000000000000000000000000000000000000000000000
010000000000000000000000000000000000000000000000000000
010000000000000000000000000000000000000000000000000000
000000000000000000000000000011100000010110100000000000
000000000000000000000000000000000000010110100000000010
000000010000000000000000000001000000000000000100000000
000000010000000000000000000000000000000001000000000000
000000010000001000000000000000000000000000000000000000
000000010000000101000000000000000000000000000000000000
000000010000000000000000000000000000000000000000000000
000000010000000000000000000000000000000000000000000000
000000010000000000000000010000000000000000000000000000
000000010000000000000011000000000000000000000000000000

.logic_tile 8 5
000000000000001000000000000101100000010110100000000000
000000000000000101000000000000000000010110100010000000
011010100000001000000000000001100000000000000100000000
000001000000001001000000000000000000000001000000000000
110000000000001000000110000000001110000100000100000000
110000000000001001000100000000000000000000000000000000
000000000000001000000000000001000000010110100000000000
000000000000000101000000000000000000010110100010000000
000000010000000000000000000000000000000000100100000000
000000010000000000000000000000001011000000000000000000
000010110000000000000000000000000000000000000000000000
000001011110000000000000000000000000000000000000000000
000000010000000000000111100000011110000100000100000000
000000010000000001000000000000000000000000000000000000
000000010000000000000000000000000000000000100100000000
000000010000000101000000000000001010000000000000000000

.logic_tile 9 5
000000000000000000000000000000000000000000000000000000
000000000000000000000000000000000000000000000000000000
011000000000000000000111000000000000000000000000000000
000000000000000000000111100000000000000000000000000000
110000000000000001000000000000000000000000000000000000
000000000000000000000000000000000000000000000000000000
000000000000000000000000000000000000000000000000000000
000000000000000000000000000000000000000000000000000000
000000010000000001000000000000011000000100000100000000
000000010000000000000000000000010000000000000000000000
000000010000000000000000000000000000000000000000000000
000000010000000000000000000000000000000000000000000000
000000010000000000000000001111001100101001010000000010
000000010000000001000000001001001010010000000010100000
000000010000000000000000000000000000000000000000000000
000000010000000000000000000000000000000000000000000000

.logic_tile 10 5
000000000000000000000010100000000000000000100100000000
000000000000000000000000000000001010000000000000000000
011000000000000000000000000000000001000000100100000000
000000000000000000000000000000001100000000000000000000
110000001110000111000110000000011010000100000100000000
110000000000000000000000000000000000000000000000000000
000000000010001000000000000000000000000000100100000000
000000000000001011000000000000001110000000000000000000
000000010000000000000000000000000000010110100000000000
000000010000000000000000001101000000101001010000000000
000000010000001001100000000000000000000000000100000000
000000010000001001100000001001000000000010000000000000
000000010000001000000011000000000001000000100100000000
000000010000001001000000000000001100000000000000000000
000000010000000000000000001000000000000000000100000000
000000010000011101000000000111000000000010000000000000

.logic_tile 11 5
000000000000000000000000000000000000000000000100000000
000000000000000000000000000101000000000010000000000000
011000000000100101100110100011000000000000000100000000
000000000001010000000000000000000000000001000000000000
110000000000000111100000011000000000000000000100000000
110000000000000000100010001111000000000010000000000000
000000000000000000000000010000000000001111000000000000
000000000000000000000010100000001011001111000000000000
000000010000001000000000000101100000010110100000000000
000000010000000011000000000000100000010110100000000000
000000010000000011100000001000000000010110100000000000
000000010000000000100000000001000000101001010000000000
000000010000000000000111000011100000000000000100000000
000000010000000000000100000000000000000001000000000000
000000010000000000000111000000000001001111000000000000
000000010000000000000100000000001001001111000000000000

.logic_tile 12 5
000000000000000101100000000101100000010110100000000000
000000000000000000000000000000100000010110100000000000
011000000000000000000000010000011000000011110000000000
000000000000000000000010100000010000000011110000000000
010000000000001000000011100000000000000000000000000000
110000000000000101000000000000000000000000000000000000
000000000000000000000000000000000000000000000000000000
000000000000000000000010100000000000000000000000000000
000000010000000000000000000111100000010110100100000010
000000010000000000000000000000100000010110100000000000
000000010000000000000000000000000000000000000000000000
000000010000000000000000000000000000000000000000000000
000000010000000000000000000001000000010110100000000000
000000010000000000000000000000000000010110100000000000
000000010000000000000000010000000000001111000000000000
000000010000000000000010100000001010001111000000000000

.logic_tile 13 5
000000000000000000000000000000000000000000000000000000
000000000000000000000000000000000000000000000000000000
011000000000000000000000000000000000000000000000000000
000000000000000000000000000000000000000000000000000000
110000000000000000000000000000000000000000000000000000
000000000000000000000000000000000000000000000000000000
000000000000000001000000000000000000000000000000000000
000000000000000000000000000000000000000000000000000000
000000010000000000000000000000000000000000000000000000
000000010000000000000000000000000000000000000000000000
000000010000000000000000000000000000000000000000000000
000000010000000000000000000000000000000000000000000000
000000010000000000000000001000000000000000000100000000
000000010000000000000000000101000000000010000000100000
000000010000000000000000000000000000000000000000000000
000000010000000000000000000000000000000000000000000000

.logic_tile 14 5
000000000000000000000000000000000000001111000100000000
000000000000000000000000000000001100001111000000000100
011000000000000000000000000000000000000000000000000000
000000000000000000000000000000000000000000000000000000
000000000000000000000000000000000000000000000000000000
000000000000000000000000000000000000000000000000000000
000000000000000000000000000000000000000000000000000000
000000000000000000000000000000000000000000000000000000
000000010000001000000000000000000000000000000000000000
000000010000000001000000000000000000000000000000000000
000000010000000000000000000000000000000000000000000000
000000010000000000000000000000000000000000000000000000
000000010000000000000000000000000000000000000000000000
000000010000000000000000000000000000000000000000000000
000000010000000000000000000000000000000000000000000000
000000010000000000000000000000000000000000000000000000

.logic_tile 15 5
000000000000000000000000000000000000000000000000000000
000000000000000000000000000000000000000000000000000000
000000000000000000000000000000000000000000000000000000
000000000000000000000000000000000000000000000000000000
000000000000000000000000000000000000000000000000000000
000000000000000000000000000000000000000000000000000000
000000000000000000000000000000000000000000000000000000
000000000000000000000000000000000000000000000000000000
000000010000000000000000000000000000000000000000000000
000000010000000000000000000000000000000000000000000000
000000010000000000000000000000000000000000000000000000
000000010000000000000000000000000000000000000000000000
000000010000000000000000000000000000000000000000000000
000000010000000000000000000000000000000000000000000000
000000010000000000000000000000000000000000000000000000
000000010000000000000000000000000000000000000000000000

.logic_tile 16 5
000000000000000000000000000000000000000000000000000000
000000000000000000000000000000000000000000000000000000
000000000000000000000000000000000000000000000000000000
000000000000000000000000000000000000000000000000000000
000000000000000000000000000000000000000000000000000000
000000000000000000000000000000000000000000000000000000
000000000000000000000000000000000000000000000000000000
000000000000000000000000000000000000000000000000000000
000000010000000000000000000000000000000000000000000000
000000010000000000000000000000000000000000000000000000
000000010000000000000000000000000000000000000000000000
000000010000000000000000000000000000000000000000000000
000000010000000000000000000000000000000000000000000000
000000010000000000000000000000000000000000000000000000
000000010000000000000000000000000000000000000000000000
000000010000000000000000000000000000000000000000000000

.logic_tile 17 5
000000000000000000000000000000000000000000000000000000
000000000000000000000000000000000000000000000000000000
000000000000000000000000000000000000000000000000000000
000000000000000000000000000000000000000000000000000000
000000000000000000000000000000000000000000000000000000
000000000000000000000000000000000000000000000000000000
000000000000000000000000000000000000000000000000000000
000000000000000000000000000000000000000000000000000000
000000010000000000000000000000000000000000000000000000
000000010000000000000000000000000000000000000000000000
000000010000000000000000000000000000000000000000000000
000000010000000000000000000000000000000000000000000000
000000010000000000000000000000000000000000000000000000
000000010000000000000000000000000000000000000000000000
000000010000000000000000000000000000000000000000000000
000000010000000000000000000000000000000000000000000000

.logic_tile 18 5
000000000000000000000000000000000000000000000000000000
000000000000000000000000000000000000000000000000000000
000000000000000000000000000000000000000000000000000000
000000000000000000000000000000000000000000000000000000
000000000000000000000000000000000000000000000000000000
000000000000000000000000000000000000000000000000000000
000000000000000000000000000000000000000000000000000000
000000000000000000000000000000000000000000000000000000
000000010000000000000000000000000000000000000000000000
000000010000000000000000000000000000000000000000000000
000000010000000000000000000000000000000000000000000000
000000010000000000000000000000000000000000000000000000
000000010000000000000000000000000000000000000000000000
000000010000000000000000000000000000000000000000000000
000000010000000000000000000000000000000000000000000000
000000010000000000000000000000000000000000000000000000

.ramb_tile 19 5
000000000000000000000000000000000000000000
000000000000000000000000000000000000000000
000000000000000000000000000000000000000000
000000000000000000000000000000000000000000
000000000000000000000000000000000000000000
000000000000000000000000000000000000000000
000000000000000000000000000000000000000000
000000000000000000000000000000000000000000
000000010000000000000000000000000000000000
000000010000000000000000000000000000000000
000000010000000000000000000000000000000000
000000010000000000000000000000000000000000
000000010000000000000000000000000000000000
000000010000000000000000000000000000000000
000000010000000000000000000000000000000000
000000010000000000000000000000000000000000

.logic_tile 20 5
000000000000000000000000000000000000000000000000000000
000000000000000000000000000000000000000000000000000000
000000000000000000000000000000000000000000000000000000
000000000000000000000000000000000000000000000000000000
000000000000000000000000000000000000000000000000000000
000000000000000000000000000000000000000000000000000000
000000000000000000000000000000000000000000000000000000
000000000000000000000000000000000000000000000000000000
000000010000000000000000000000000000000000000000000000
000000010000000000000000000000000000000000000000000000
000000010000000000000000000000000000000000000000000000
000000010000000000000000000000000000000000000000000000
000000010000000000000000000000000000000000000000000000
000000010000000000000000000000000000000000000000000000
000000010000000000000000000000000000000000000000000000
000000010000000000000000000000000000000000000000000000

.logic_tile 21 5
000000000000000000000000000000000000000000000000000000
000000000000000000000000000000000000000000000000000000
000000000000000000000000000000000000000000000000000000
000000000000000000000000000000000000000000000000000000
000000000000000000000000000000000000000000000000000000
000000000000000000000000000000000000000000000000000000
000000000000000000000000000000000000000000000000000000
000000000000000000000000000000000000000000000000000000
000000010000000000000000000000000000000000000000000000
000000010000000000000000000000000000000000000000000000
000000010000000000000000000000000000000000000000000000
000000010000000000000000000000000000000000000000000000
000000010000000000000000000000000000000000000000000000
000000010000000000000000000000000000000000000000000000
000000010000000000000000000000000000000000000000000000
000000010000000000000000000000000000000000000000000000

.logic_tile 22 5
000000000000000000000000000000000000000000000000000000
000000000000000000000000000000000000000000000000000000
000000000000000000000000000000000000000000000000000000
000000000000000000000000000000000000000000000000000000
000000000000000000000000000000000000000000000000000000
000000000000000000000000000000000000000000000000000000
000000000000000000000000000000000000000000000000000000
000000000000000000000000000000000000000000000000000000
000000010000000000000000000000000000000000000000000000
000000010000000000000000000000000000000000000000000000
000000010000000000000000000000000000000000000000000000
000000010000000000000000000000000000000000000000000000
000000010000000000000000000000000000000000000000000000
000000010000000000000000000000000000000000000000000000
000000010000000000000000000000000000000000000000000000
000000010000000000000000000000000000000000000000000000

.logic_tile 23 5
000000000000000000000000000000000000000000000000000000
000000000000000000000000000000000000000000000000000000
000000000000000000000000000000000000000000000000000000
000000000000000000000000000000000000000000000000000000
